,time,amp
0,0.0,-0.245
1,0.0125,-0.215
2,0.025,-0.185
3,0.0375,-0.175
4,0.05,-0.17
5,0.0625,-0.17
6,0.075,-0.185
7,0.0875,-0.17
8,0.1,-0.16
9,0.1125,-0.15
10,0.125,-0.17
11,0.1375,-0.205
12,0.15,-0.22
13,0.1625,-0.23
14,0.175,-0.21
15,0.1875,-0.19
16,0.2,-0.175
17,0.2125,-0.185
18,0.225,-0.19
19,0.2375,-0.19
20,0.25,-0.2
21,0.2625,-0.2
22,0.275,-0.21
23,0.2875,-0.205
24,0.3,-0.215
25,0.3125,-0.205
26,0.325,-0.225
27,0.3375,-0.235
28,0.35,-0.225
29,0.3625,-0.205
30,0.375,-0.21
31,0.3875,-0.2
32,0.4,-0.2
33,0.4125,-0.195
34,0.425,-0.185
35,0.4375,-0.19
36,0.45,-0.215
37,0.4625,-0.22
38,0.475,-0.195
39,0.4875,-0.195
40,0.5,-0.22
41,0.5125,-0.25
42,0.525,-0.22
43,0.5375,-0.165
44,0.55,-0.15
45,0.5625,-0.145
46,0.575,-0.185
47,0.5875,-0.195
48,0.6,-0.195
49,0.6125,-0.185
50,0.625,-0.17
51,0.6375,-0.16
52,0.65,-0.16
53,0.6625,-0.18
54,0.675,-0.205
55,0.6875,-0.2
56,0.7,-0.165
57,0.7125,-0.135
58,0.725,-0.13
59,0.7375,-0.13
60,0.75,-0.13
61,0.7625,-0.11
62,0.775,-0.065
63,0.7875,-0.03
64,0.8,-0.04
65,0.8125,-0.055
66,0.825,-0.055
67,0.8375,-0.035
68,0.85,0.0
69,0.8625,0.015
70,0.875,0.015
71,0.8875,0.0
72,0.9,0.01
73,0.9125,0.015
74,0.925,0.02
75,0.9375,0.035
76,0.95,0.045
77,0.9625,0.04
78,0.975,0.03
79,0.9875,0.025
80,1.0,0.005
81,1.0125,-0.005
82,1.025,-0.025
83,1.0375,-0.05
84,1.05,-0.05
85,1.0625,-0.045
86,1.075,-0.025
87,1.0875,-0.02
88,1.1,-0.035
89,1.1125,-0.065
90,1.125,-0.065
91,1.1375,-0.075
92,1.15,-0.07
93,1.1625,-0.085
94,1.175,-0.1
95,1.1875,-0.14
96,1.2,-0.145
97,1.2125,-0.14
98,1.225,-0.115
99,1.2375,-0.095
100,1.25,-0.09
101,1.2625,-0.1
102,1.275,-0.11
103,1.2875,-0.125
104,1.3,-0.125
105,1.3125,-0.11
106,1.325,-0.085
107,1.3375,-0.095
108,1.35,-0.08
109,1.3625,-0.065
110,1.375,-0.03
111,1.3875,-0.04
112,1.4,-0.065
113,1.4125,-0.11
114,1.425,-0.145
115,1.4375,-0.145
116,1.45,-0.075
117,1.4625,0.035
118,1.475,0.22
119,1.4875,0.435
120,1.5,0.695
121,1.5125,1.005
122,1.525,1.3
123,1.5375,1.535
124,1.55,1.72
125,1.5625,1.82
126,1.575,1.72
127,1.5875,1.425
128,1.6,1.02
129,1.6125,0.6
130,1.625,0.2
131,1.6375,-0.095
132,1.65,-0.215
133,1.6625,-0.19
134,1.675,-0.125
135,1.6875,-0.105
136,1.7,-0.115
137,1.7125,-0.13
138,1.725,-0.1
139,1.7375,-0.075
140,1.75,-0.08
141,1.7625,-0.11
142,1.775,-0.125
143,1.7875,-0.155
144,1.8,-0.165
145,1.8125,-0.17
146,1.825,-0.17
147,1.8375,-0.17
148,1.85,-0.17
149,1.8625,-0.185
150,1.875,-0.185
151,1.8875,-0.2
152,1.9,-0.19
153,1.9125,-0.175
154,1.925,-0.155
155,1.9375,-0.14
156,1.95,-0.175
157,1.9625,-0.175
158,1.975,-0.17
159,1.9875,-0.15
160,2.0,-0.16
161,2.0125,-0.165
162,2.025,-0.18
163,2.0375,-0.19
164,2.05,-0.165
165,2.0625,-0.14
166,2.075,-0.13
167,2.0875,-0.15
168,2.1,-0.16
169,2.1125,-0.145
170,2.125,-0.125
171,2.1375,-0.115
172,2.15,-0.11
173,2.1625,-0.115
174,2.175,-0.12
175,2.1875,-0.115
176,2.2,-0.095
177,2.2125,-0.085
178,2.225,-0.09
179,2.2375,-0.09
180,2.25,-0.1
181,2.2625,-0.095
182,2.275,-0.085
183,2.2875,-0.065
184,2.3,-0.06
185,2.3125,-0.07
186,2.325,-0.05
187,2.3375,-0.045
188,2.35,-0.02
189,2.3625,0.01
190,2.375,0.02
191,2.3875,0.04
192,2.4,0.055
193,2.4125,0.065
194,2.425,0.075
195,2.4375,0.095
196,2.45,0.115
197,2.4625,0.085
198,2.475,0.06
199,2.4875,0.08
200,2.5,0.125
201,2.5125,0.16
202,2.525,0.165
203,2.5375,0.17
204,2.55,0.185
205,2.5625,0.22
206,2.575,0.225
207,2.5875,0.235
208,2.6,0.22
209,2.6125,0.23
210,2.625,0.25
211,2.6375,0.28
212,2.65,0.27
213,2.6625,0.25
214,2.675,0.255
215,2.6875,0.245
216,2.7,0.235
217,2.7125,0.235
218,2.725,0.25
219,2.7375,0.23
220,2.75,0.245
221,2.7625,0.23
222,2.775,0.22
223,2.7875,0.215
224,2.8,0.18
225,2.8125,0.12
226,2.825,0.075
227,2.8375,0.065
228,2.85,0.06
229,2.8625,0.055
230,2.875,0.025
231,2.8875,-0.005
232,2.9,-0.04
233,2.9125,-0.085
234,2.925,-0.135
235,2.9375,-0.145
236,2.95,-0.14
237,2.9625,-0.12
238,2.975,-0.12
239,2.9875,-0.16
240,3.0,-0.195
241,3.0125,-0.2
242,3.025,-0.215
243,3.0375,-0.2
244,3.05,-0.2
245,3.0625,-0.215
246,3.075,-0.255
247,3.0875,-0.27
248,3.1,-0.225
249,3.1125,-0.225
250,3.125,-0.24
251,3.1375,-0.25
252,3.15,-0.23
253,3.1625,-0.19
254,3.175,-0.18
255,3.1875,-0.2
256,3.2,-0.21
257,3.2125,-0.215
258,3.225,-0.21
259,3.2375,-0.21
260,3.25,-0.205
261,3.2625,-0.225
262,3.275,-0.23
263,3.2875,-0.24
264,3.3,-0.245
265,3.3125,-0.23
266,3.325,-0.23
267,3.3375,-0.21
268,3.35,-0.2
269,3.3625,-0.185
270,3.375,-0.175
271,3.3875,-0.175
272,3.4,-0.19
273,3.4125,-0.19
274,3.425,-0.19
275,3.4375,-0.2
276,3.45,-0.175
277,3.4625,-0.13
278,3.475,-0.09
279,3.4875,-0.095
280,3.5,-0.13
281,3.5125,-0.17
282,3.525,-0.16
283,3.5375,-0.135
284,3.55,-0.1
285,3.5625,-0.09
286,3.575,-0.115
287,3.5875,-0.115
288,3.6,-0.08
289,3.6125,-0.04
290,3.625,-0.065
291,3.6375,-0.105
292,3.65,-0.12
293,3.6625,-0.12
294,3.675,-0.11
295,3.6875,-0.105
296,3.7,-0.11
297,3.7125,-0.15
298,3.725,-0.155
299,3.7375,-0.16
300,3.75,-0.15
301,3.7625,-0.165
302,3.775,-0.19
303,3.7875,-0.215
304,3.8,-0.27
305,3.8125,-0.32
306,3.825,-0.34
307,3.8375,-0.32
308,3.85,-0.28
309,3.8625,-0.285
310,3.875,-0.31
311,3.8875,-0.36
312,3.9,-0.375
313,3.9125,-0.34
314,3.925,-0.31
315,3.9375,-0.31
316,3.95,-0.305
317,3.9625,-0.32
318,3.975,-0.32
319,3.9875,-0.35
320,4.0,-0.35
321,4.0125,-0.325
322,4.025,-0.3
323,4.0375,-0.32
324,4.05,-0.38
325,4.0625,-0.395
326,4.075,-0.335
327,4.0875,-0.275
328,4.1,-0.26
329,4.1125,-0.29
330,4.125,-0.33
331,4.1375,-0.335
332,4.15,-0.33
333,4.1625,-0.325
334,4.175,-0.27
335,4.1875,-0.145
336,4.2,0.045
337,4.2125,0.28
338,4.225,0.535
339,4.2375,0.83
340,4.25,1.105
341,4.2625,1.335
342,4.275,1.5
343,4.2875,1.51
344,4.3,1.27
345,4.3125,0.865
346,4.325,0.41
347,4.3375,0.0
348,4.35,-0.255
349,4.3625,-0.33
350,4.375,-0.33
351,4.3875,-0.315
352,4.4,-0.325
353,4.4125,-0.32
354,4.425,-0.27
355,4.4375,-0.26
356,4.45,-0.29
357,4.4625,-0.335
358,4.475,-0.33
359,4.4875,-0.345
360,4.5,-0.35
361,4.5125,-0.335
362,4.525,-0.305
363,4.5375,-0.3
364,4.55,-0.34
365,4.5625,-0.36
366,4.575,-0.37
367,4.5875,-0.38
368,4.6,-0.38
369,4.6125,-0.37
370,4.625,-0.35
371,4.6375,-0.325
372,4.65,-0.305
373,4.6625,-0.295
374,4.675,-0.275
375,4.6875,-0.305
376,4.7,-0.325
377,4.7125,-0.345
378,4.725,-0.335
379,4.7375,-0.335
380,4.75,-0.335
381,4.7625,-0.36
382,4.775,-0.365
383,4.7875,-0.35
384,4.8,-0.38
385,4.8125,-0.41
386,4.825,-0.395
387,4.8375,-0.385
388,4.85,-0.36
389,4.8625,-0.34
390,4.875,-0.345
391,4.8875,-0.325
392,4.9,-0.3
393,4.9125,-0.295
394,4.925,-0.285
395,4.9375,-0.29
396,4.95,-0.295
397,4.9625,-0.285
398,4.975,-0.275
399,4.9875,-0.275
400,5.0,-0.235
401,5.0125,-0.225
402,5.025,-0.215
403,5.0375,-0.19
404,5.05,-0.125
405,5.0625,-0.055
406,5.075,-0.04
407,5.0875,-0.065
408,5.1,-0.095
409,5.1125,-0.125
410,5.125,-0.095
411,5.1375,-0.095
412,5.15,-0.07
413,5.1625,-0.045
414,5.175,-0.01
415,5.1875,-0.02
416,5.2,-0.015
417,5.2125,-0.01
418,5.225,-0.03
419,5.2375,-0.025
420,5.25,0.005
421,5.2625,0.065
422,5.275,0.1
423,5.2875,0.11
424,5.3,0.06
425,5.3125,-0.05
426,5.325,-0.13
427,5.3375,-0.08
428,5.35,0.04
429,5.3625,0.125
430,5.375,0.115
431,5.3875,0.045
432,5.4,-0.02
433,5.4125,-0.025
434,5.425,0.02
435,5.4375,0.015
436,5.45,-0.07
437,5.4625,-0.135
438,5.475,-0.165
439,5.4875,-0.165
440,5.5,-0.1
441,5.5125,-0.04
442,5.525,-0.085
443,5.5375,-0.22
444,5.55,-0.44
445,5.5625,-0.615
446,5.575,-0.66
447,5.5875,-0.615
448,5.6,-0.55
449,5.6125,-0.505
450,5.625,-0.48
451,5.6375,-0.45
452,5.65,-0.395
453,5.6625,-0.355
454,5.675,-0.32
455,5.6875,-0.305
456,5.7,-0.32
457,5.7125,-0.37
458,5.725,-0.51
459,5.7375,-0.67
460,5.75,-0.725
461,5.7625,-0.58
462,5.775,-0.395
463,5.7875,-0.325
464,5.8,-0.37
465,5.8125,-0.42
466,5.825,-0.47
467,5.8375,-0.47
468,5.85,-0.435
469,5.8625,-0.335
470,5.875,-0.18
471,5.8875,-0.035
472,5.9,0.01
473,5.9125,-0.135
474,5.925,-0.34
475,5.9375,-0.495
476,5.95,-0.575
477,5.9625,-0.56
478,5.975,-0.52
479,5.9875,-0.505
480,6.0,-0.445
481,6.0125,-0.36
482,6.025,-0.33
483,6.0375,-0.38
484,6.05,-0.415
485,6.0625,-0.41
486,6.075,-0.415
487,6.0875,-0.46
488,6.1,-0.465
489,6.1125,-0.41
490,6.125,-0.36
491,6.1375,-0.33
492,6.15,-0.31
493,6.1625,-0.3
494,6.175,-0.255
495,6.1875,-0.215
496,6.2,-0.235
497,6.2125,-0.34
498,6.225,-0.4
499,6.2375,-0.385
500,6.25,-0.325
501,6.2625,-0.275
502,6.275,-0.295
503,6.2875,-0.365
504,6.3,-0.365
505,6.3125,-0.325
506,6.325,-0.31
507,6.3375,-0.335
508,6.35,-0.36
509,6.3625,-0.37
510,6.375,-0.345
511,6.3875,-0.33
512,6.4,-0.375
513,6.4125,-0.425
514,6.425,-0.425
515,6.4375,-0.425
516,6.45,-0.485
517,6.4625,-0.61
518,6.475,-0.725
519,6.4875,-0.78
520,6.5,-0.735
521,6.5125,-0.665
522,6.525,-0.665
523,6.5375,-0.72
524,6.55,-0.76
525,6.5625,-0.735
526,6.575,-0.625
527,6.5875,-0.545
528,6.6,-0.51
529,6.6125,-0.535
530,6.625,-0.63
531,6.6375,-0.73
532,6.65,-0.77
533,6.6625,-0.725
534,6.675,-0.64
535,6.6875,-0.58
536,6.7,-0.53
537,6.7125,-0.525
538,6.725,-0.59
539,6.7375,-0.68
540,6.75,-0.695
541,6.7625,-0.595
542,6.775,-0.455
543,6.7875,-0.315
544,6.8,-0.185
545,6.8125,-0.035
546,6.825,0.16
547,6.8375,0.425
548,6.85,0.77
549,6.8625,1.115
550,6.875,1.385
551,6.8875,1.59
552,6.9,1.66
553,6.9125,1.51
554,6.925,1.185
555,6.9375,0.78
556,6.95,0.33
557,6.9625,-0.085
558,6.975,-0.35
559,6.9875,-0.465
560,7.0,-0.535
561,7.0125,-0.605
562,7.025,-0.65
563,7.0375,-0.67
564,7.05,-0.685
565,7.0625,-0.715
566,7.075,-0.75
567,7.0875,-0.77
568,7.1,-0.755
569,7.1125,-0.755
570,7.125,-0.75
571,7.1375,-0.77
572,7.15,-0.775
573,7.1625,-0.765
574,7.175,-0.74
575,7.1875,-0.745
576,7.2,-0.77
577,7.2125,-0.795
578,7.225,-0.815
579,7.2375,-0.805
580,7.25,-0.8
581,7.2625,-0.81
582,7.275,-0.815
583,7.2875,-0.825
584,7.3,-0.8
585,7.3125,-0.785
586,7.325,-0.755
587,7.3375,-0.765
588,7.35,-0.755
589,7.3625,-0.745
590,7.375,-0.735
591,7.3875,-0.735
592,7.4,-0.785
593,7.4125,-0.845
594,7.425,-0.85
595,7.4375,-0.835
596,7.45,-0.795
597,7.4625,-0.76
598,7.475,-0.745
599,7.4875,-0.735
600,7.5,-0.725
601,7.5125,-0.7
602,7.525,-0.685
603,7.5375,-0.67
604,7.55,-0.71
605,7.5625,-0.765
606,7.575,-0.79
607,7.5875,-0.77
608,7.6,-0.74
609,7.6125,-0.7
610,7.625,-0.685
611,7.6375,-0.68
612,7.65,-0.67
613,7.6625,-0.65
614,7.675,-0.64
615,7.6875,-0.625
616,7.7,-0.605
617,7.7125,-0.615
618,7.725,-0.605
619,7.7375,-0.59
620,7.75,-0.57
621,7.7625,-0.555
622,7.775,-0.565
623,7.7875,-0.58
624,7.8,-0.57
625,7.8125,-0.545
626,7.825,-0.505
627,7.8375,-0.465
628,7.85,-0.445
629,7.8625,-0.455
630,7.875,-0.445
631,7.8875,-0.43
632,7.9,-0.415
633,7.9125,-0.435
634,7.925,-0.44
635,7.9375,-0.43
636,7.95,-0.39
637,7.9625,-0.355
638,7.975,-0.315
639,7.9875,-0.31
640,8.0,-0.33
641,8.0125,-0.355
642,8.025,-0.39
643,8.0375,-0.415
644,8.05,-0.44
645,8.0625,-0.465
646,8.075,-0.495
647,8.0875,-0.475
648,8.1,-0.475
649,8.1125,-0.49
650,8.125,-0.49
651,8.1375,-0.495
652,8.15,-0.5
653,8.1625,-0.545
654,8.175,-0.6
655,8.1875,-0.625
656,8.2,-0.625
657,8.2125,-0.63
658,8.225,-0.635
659,8.2375,-0.62
660,8.25,-0.605
661,8.2625,-0.59
662,8.275,-0.59
663,8.2875,-0.595
664,8.3,-0.615
665,8.3125,-0.635
666,8.325,-0.645
667,8.3375,-0.65
668,8.35,-0.65
669,8.3625,-0.645
670,8.375,-0.65
671,8.3875,-0.65
672,8.4,-0.645
673,8.4125,-0.635
674,8.425,-0.62
675,8.4375,-0.61
676,8.45,-0.62
677,8.4625,-0.645
678,8.475,-0.65
679,8.4875,-0.665
680,8.5,-0.66
681,8.5125,-0.625
682,8.525,-0.62
683,8.5375,-0.63
684,8.55,-0.64
685,8.5625,-0.63
686,8.575,-0.61
687,8.5875,-0.57
688,8.6,-0.545
689,8.6125,-0.57
690,8.625,-0.56
691,8.6375,-0.555
692,8.65,-0.525
693,8.6625,-0.5
694,8.675,-0.485
695,8.6875,-0.495
696,8.7,-0.51
697,8.7125,-0.505
698,8.725,-0.475
699,8.7375,-0.475
700,8.75,-0.49
701,8.7625,-0.515
702,8.775,-0.51
703,8.7875,-0.5
704,8.8,-0.49
705,8.8125,-0.505
706,8.825,-0.53
707,8.8375,-0.56
708,8.85,-0.565
709,8.8625,-0.6
710,8.875,-0.615
711,8.8875,-0.635
712,8.9,-0.645
713,8.9125,-0.645
714,8.925,-0.665
715,8.9375,-0.665
716,8.95,-0.65
717,8.9625,-0.64
718,8.975,-0.65
719,8.9875,-0.68
720,9.0,-0.695
721,9.0125,-0.685
722,9.025,-0.65
723,9.0375,-0.63
724,9.05,-0.645
725,9.0625,-0.655
726,9.075,-0.675
727,9.0875,-0.665
728,9.1,-0.66
729,9.1125,-0.655
730,9.125,-0.65
731,9.1375,-0.645
732,9.15,-0.65
733,9.1625,-0.65
734,9.175,-0.645
735,9.1875,-0.635
736,9.2,-0.625
737,9.2125,-0.66
738,9.225,-0.69
739,9.2375,-0.655
740,9.25,-0.565
741,9.2625,-0.445
742,9.275,-0.29
743,9.2875,-0.085
744,9.3,0.165
745,9.3125,0.485
746,9.325,0.76
747,9.3375,1.005
748,9.35,1.135
749,9.3625,1.06
750,9.375,0.75
751,9.3875,0.355
752,9.4,-0.055
753,9.4125,-0.42
754,9.425,-0.61
755,9.4375,-0.675
756,9.45,-0.68
757,9.4625,-0.67
758,9.475,-0.66
759,9.4875,-0.665
760,9.5,-0.645
761,9.5125,-0.645
762,9.525,-0.655
763,9.5375,-0.66
764,9.55,-0.65
765,9.5625,-0.635
766,9.575,-0.66
767,9.5875,-0.69
768,9.6,-0.71
769,9.6125,-0.7
770,9.625,-0.665
771,9.6375,-0.635
772,9.65,-0.645
773,9.6625,-0.675
774,9.675,-0.69
775,9.6875,-0.68
776,9.7,-0.655
777,9.7125,-0.64
778,9.725,-0.63
779,9.7375,-0.635
780,9.75,-0.645
781,9.7625,-0.635
782,9.775,-0.635
783,9.7875,-0.63
784,9.8,-0.635
785,9.8125,-0.635
786,9.825,-0.635
787,9.8375,-0.625
788,9.85,-0.6
789,9.8625,-0.59
790,9.875,-0.58
791,9.8875,-0.59
792,9.9,-0.605
793,9.9125,-0.575
794,9.925,-0.565
795,9.9375,-0.555
796,9.95,-0.555
797,9.9625,-0.55
798,9.975,-0.55
799,9.9875,-0.535
800,10.0,-0.535
801,10.0125,-0.525
802,10.025,-0.515
803,10.0375,-0.505
804,10.05,-0.505
805,10.0625,-0.495
806,10.075,-0.485
807,10.0875,-0.445
808,10.1,-0.415
809,10.1125,-0.41
810,10.125,-0.415
811,10.1375,-0.435
812,10.15,-0.4
813,10.1625,-0.375
814,10.175,-0.365
815,10.1875,-0.355
816,10.2,-0.355
817,10.2125,-0.345
818,10.225,-0.3
819,10.2375,-0.27
820,10.25,-0.225
821,10.2625,-0.235
822,10.275,-0.26
823,10.2875,-0.255
824,10.3,-0.235
825,10.3125,-0.22
826,10.325,-0.195
827,10.3375,-0.19
828,10.35,-0.2
829,10.3625,-0.195
830,10.375,-0.175
831,10.3875,-0.165
832,10.4,-0.17
833,10.4125,-0.18
834,10.425,-0.17
835,10.4375,-0.155
836,10.45,-0.155
837,10.4625,-0.16
838,10.475,-0.175
839,10.4875,-0.21
840,10.5,-0.255
841,10.5125,-0.295
842,10.525,-0.32
843,10.5375,-0.325
844,10.55,-0.345
845,10.5625,-0.38
846,10.575,-0.415
847,10.5875,-0.435
848,10.6,-0.425
849,10.6125,-0.44
850,10.625,-0.47
851,10.6375,-0.5
852,10.65,-0.525
853,10.6625,-0.535
854,10.675,-0.53
855,10.6875,-0.515
856,10.7,-0.515
857,10.7125,-0.545
858,10.725,-0.565
859,10.7375,-0.57
860,10.75,-0.565
861,10.7625,-0.555
862,10.775,-0.55
863,10.7875,-0.565
864,10.8,-0.575
865,10.8125,-0.575
866,10.825,-0.555
867,10.8375,-0.555
868,10.85,-0.535
869,10.8625,-0.545
870,10.875,-0.565
871,10.8875,-0.57
872,10.9,-0.555
873,10.9125,-0.54
874,10.925,-0.55
875,10.9375,-0.575
876,10.95,-0.555
877,10.9625,-0.55
878,10.975,-0.52
879,10.9875,-0.49
880,11.0,-0.5
881,11.0125,-0.515
882,11.025,-0.515
883,11.0375,-0.485
884,11.05,-0.435
885,11.0625,-0.41
886,11.075,-0.415
887,11.0875,-0.43
888,11.1,-0.43
889,11.1125,-0.385
890,11.125,-0.36
891,11.1375,-0.335
892,11.15,-0.325
893,11.1625,-0.345
894,11.175,-0.37
895,11.1875,-0.375
896,11.2,-0.355
897,11.2125,-0.345
898,11.225,-0.35
899,11.2375,-0.365
900,11.25,-0.39
901,11.2625,-0.395
902,11.275,-0.4
903,11.2875,-0.41
904,11.3,-0.43
905,11.3125,-0.455
906,11.325,-0.5
907,11.3375,-0.5
908,11.35,-0.485
909,11.3625,-0.455
910,11.375,-0.47
911,11.3875,-0.49
912,11.4,-0.505
913,11.4125,-0.51
914,11.425,-0.525
915,11.4375,-0.51
916,11.45,-0.525
917,11.4625,-0.53
918,11.475,-0.54
919,11.4875,-0.545
920,11.5,-0.525
921,11.5125,-0.51
922,11.525,-0.55
923,11.5375,-0.635
924,11.55,-0.71
925,11.5625,-0.75
926,11.575,-0.755
927,11.5875,-0.76
928,11.6,-0.785
929,11.6125,-0.75
930,11.625,-0.69
931,11.6375,-0.64
932,11.65,-0.59
933,11.6625,-0.535
934,11.675,-0.485
935,11.6875,-0.405
936,11.7,-0.295
937,11.7125,-0.165
938,11.725,-0.02
939,11.7375,0.19
940,11.75,0.46
941,11.7625,0.725
942,11.775,0.995
943,11.7875,1.18
944,11.8,1.255
945,11.8125,1.145
946,11.825,0.895
947,11.8375,0.55
948,11.85,0.215
949,11.8625,-0.055
950,11.875,-0.26
951,11.8875,-0.395
952,11.9,-0.475
953,11.9125,-0.54
954,11.925,-0.575
955,11.9375,-0.565
956,11.95,-0.53
957,11.9625,-0.51
958,11.975,-0.535
959,11.9875,-0.59
960,12.0,-0.635
961,12.0125,-0.675
962,12.025,-0.725
963,12.0375,-0.755
964,12.05,-0.77
965,12.0625,-0.8
966,12.075,-0.78
967,12.0875,-0.775
968,12.1,-0.79
969,12.1125,-0.805
970,12.125,-0.84
971,12.1375,-0.88
972,12.15,-0.925
973,12.1625,-0.935
974,12.175,-0.94
975,12.1875,-0.92
976,12.2,-0.895
977,12.2125,-0.905
978,12.225,-0.915
979,12.2375,-0.895
980,12.25,-0.83
981,12.2625,-0.745
982,12.275,-0.695
983,12.2875,-0.685
984,12.3,-0.69
985,12.3125,-0.675
986,12.325,-0.64
987,12.3375,-0.62
988,12.35,-0.62
989,12.3625,-0.635
990,12.375,-0.65
991,12.3875,-0.68
992,12.4,-0.685
993,12.4125,-0.625
994,12.425,-0.53
995,12.4375,-0.485
996,12.45,-0.445
997,12.4625,-0.385
998,12.475,-0.32
999,12.4875,-0.35
1000,12.5,-0.4
1001,12.5125,-0.37
1002,12.525,-0.355
1003,12.5375,-0.43
1004,12.55,-0.54
1005,12.5625,-0.61
1006,12.575,-0.515
1007,12.5875,-0.315
1008,12.6,-0.23
1009,12.6125,-0.25
1010,12.625,-0.245
1011,12.6375,-0.11
1012,12.65,0.01
1013,12.6625,-0.03
1014,12.675,-0.135
1015,12.6875,-0.135
1016,12.7,-0.085
1017,12.7125,-0.03
1018,12.725,-0.02
1019,12.7375,-0.04
1020,12.75,-0.045
1021,12.7625,-0.02
1022,12.775,0.015
1023,12.7875,0.085
1024,12.8,0.105
1025,12.8125,0.11
1026,12.825,0.14
1027,12.8375,0.2
1028,12.85,0.23
1029,12.8625,0.24
1030,12.875,0.205
1031,12.8875,0.155
1032,12.9,0.115
1033,12.9125,0.075
1034,12.925,0.045
1035,12.9375,0.005
1036,12.95,-0.045
1037,12.9625,-0.115
1038,12.975,-0.155
1039,12.9875,-0.195
1040,13.0,-0.23
1041,13.0125,-0.23
1042,13.025,-0.255
1043,13.0375,-0.285
1044,13.05,-0.315
1045,13.0625,-0.355
1046,13.075,-0.355
1047,13.0875,-0.355
1048,13.1,-0.38
1049,13.1125,-0.405
1050,13.125,-0.415
1051,13.1375,-0.415
1052,13.15,-0.425
1053,13.1625,-0.42
1054,13.175,-0.445
1055,13.1875,-0.45
1056,13.2,-0.46
1057,13.2125,-0.445
1058,13.225,-0.445
1059,13.2375,-0.405
1060,13.25,-0.43
1061,13.2625,-0.455
1062,13.275,-0.455
1063,13.2875,-0.445
1064,13.3,-0.445
1065,13.3125,-0.42
1066,13.325,-0.395
1067,13.3375,-0.41
1068,13.35,-0.41
1069,13.3625,-0.385
1070,13.375,-0.355
1071,13.3875,-0.33
1072,13.4,-0.325
1073,13.4125,-0.35
1074,13.425,-0.35
1075,13.4375,-0.305
1076,13.45,-0.265
1077,13.4625,-0.225
1078,13.475,-0.235
1079,13.4875,-0.27
1080,13.5,-0.31
1081,13.5125,-0.345
1082,13.525,-0.35
1083,13.5375,-0.35
1084,13.55,-0.395
1085,13.5625,-0.42
1086,13.575,-0.465
1087,13.5875,-0.51
1088,13.6,-0.565
1089,13.6125,-0.62
1090,13.625,-0.655
1091,13.6375,-0.695
1092,13.65,-0.77
1093,13.6625,-0.81
1094,13.675,-0.84
1095,13.6875,-0.835
1096,13.7,-0.82
1097,13.7125,-0.79
1098,13.725,-0.76
1099,13.7375,-0.745
1100,13.75,-0.755
1101,13.7625,-0.755
1102,13.775,-0.765
1103,13.7875,-0.78
1104,13.8,-0.795
1105,13.8125,-0.795
1106,13.825,-0.79
1107,13.8375,-0.775
1108,13.85,-0.75
1109,13.8625,-0.72
1110,13.875,-0.715
1111,13.8875,-0.685
1112,13.9,-0.66
1113,13.9125,-0.605
1114,13.925,-0.58
1115,13.9375,-0.57
1116,13.95,-0.525
1117,13.9625,-0.505
1118,13.975,-0.465
1119,13.9875,-0.43
1120,14.0,-0.42
1121,14.0125,-0.355
1122,14.025,-0.26
1123,14.0375,-0.1
1124,14.05,0.14
1125,14.0625,0.38
1126,14.075,0.64
1127,14.0875,0.885
1128,14.1,1.125
1129,14.1125,1.36
1130,14.125,1.495
1131,14.1375,1.405
1132,14.15,1.085
1133,14.1625,0.66
1134,14.175,0.275
1135,14.1875,0.025
1136,14.2,-0.09
1137,14.2125,-0.1
1138,14.225,-0.105
1139,14.2375,-0.12
1140,14.25,-0.19
1141,14.2625,-0.225
1142,14.275,-0.22
1143,14.2875,-0.2
1144,14.3,-0.25
1145,14.3125,-0.33
1146,14.325,-0.37
1147,14.3375,-0.355
1148,14.35,-0.335
1149,14.3625,-0.315
1150,14.375,-0.335
1151,14.3875,-0.38
1152,14.4,-0.41
1153,14.4125,-0.4
1154,14.425,-0.39
1155,14.4375,-0.375
1156,14.45,-0.385
1157,14.4625,-0.43
1158,14.475,-0.47
1159,14.4875,-0.475
1160,14.5,-0.465
1161,14.5125,-0.46
1162,14.525,-0.485
1163,14.5375,-0.53
1164,14.55,-0.57
1165,14.5625,-0.61
1166,14.575,-0.62
1167,14.5875,-0.59
1168,14.6,-0.595
1169,14.6125,-0.595
1170,14.625,-0.63
1171,14.6375,-0.635
1172,14.65,-0.63
1173,14.6625,-0.615
1174,14.675,-0.615
1175,14.6875,-0.63
1176,14.7,-0.64
1177,14.7125,-0.61
1178,14.725,-0.6
1179,14.7375,-0.575
1180,14.75,-0.575
1181,14.7625,-0.59
1182,14.775,-0.595
1183,14.7875,-0.585
1184,14.8,-0.555
1185,14.8125,-0.53
1186,14.825,-0.52
1187,14.8375,-0.525
1188,14.85,-0.535
1189,14.8625,-0.535
1190,14.875,-0.51
1191,14.8875,-0.475
1192,14.9,-0.475
1193,14.9125,-0.485
1194,14.925,-0.47
1195,14.9375,-0.455
1196,14.95,-0.41
1197,14.9625,-0.375
1198,14.975,-0.375
1199,14.9875,-0.38
1200,15.0,-0.39
1201,15.0125,-0.36
1202,15.025,-0.35
1203,15.0375,-0.325
1204,15.05,-0.33
1205,15.0625,-0.325
1206,15.075,-0.315
1207,15.0875,-0.28
1208,15.1,-0.27
1209,15.1125,-0.28
1210,15.125,-0.32
1211,15.1375,-0.365
1212,15.15,-0.405
1213,15.1625,-0.4
1214,15.175,-0.35
1215,15.1875,-0.325
1216,15.2,-0.32
1217,15.2125,-0.355
1218,15.225,-0.395
1219,15.2375,-0.415
1220,15.25,-0.435
1221,15.2625,-0.44
1222,15.275,-0.465
1223,15.2875,-0.5
1224,15.3,-0.54
1225,15.3125,-0.565
1226,15.325,-0.585
1227,15.3375,-0.59
1228,15.35,-0.625
1229,15.3625,-0.64
1230,15.375,-0.635
1231,15.3875,-0.61
1232,15.4,-0.58
1233,15.4125,-0.565
1234,15.425,-0.56
1235,15.4375,-0.565
1236,15.45,-0.53
1237,15.4625,-0.485
1238,15.475,-0.445
1239,15.4875,-0.405
1240,15.5,-0.395
1241,15.5125,-0.395
1242,15.525,-0.39
1243,15.5375,-0.37
1244,15.55,-0.355
1245,15.5625,-0.32
1246,15.575,-0.31
1247,15.5875,-0.29
1248,15.6,-0.29
1249,15.6125,-0.305
1250,15.625,-0.28
1251,15.6375,-0.28
1252,15.65,-0.26
1253,15.6625,-0.26
1254,15.675,-0.265
1255,15.6875,-0.255
1256,15.7,-0.235
1257,15.7125,-0.19
1258,15.725,-0.165
1259,15.7375,-0.155
1260,15.75,-0.13
1261,15.7625,-0.09
1262,15.775,-0.07
1263,15.7875,-0.035
1264,15.8,0.0
1265,15.8125,0.01
1266,15.825,-0.005
1267,15.8375,-0.015
1268,15.85,-0.025
1269,15.8625,-0.035
1270,15.875,-0.06
1271,15.8875,-0.1
1272,15.9,-0.15
1273,15.9125,-0.18
1274,15.925,-0.18
1275,15.9375,-0.18
1276,15.95,-0.245
1277,15.9625,-0.33
1278,15.975,-0.38
1279,15.9875,-0.425
1280,16.0,-0.45
1281,16.0125,-0.45
1282,16.025,-0.455
1283,16.0375,-0.485
1284,16.05,-0.535
1285,16.0625,-0.54
1286,16.075,-0.53
1287,16.0875,-0.49
1288,16.1,-0.475
1289,16.1125,-0.485
1290,16.125,-0.505
1291,16.1375,-0.515
1292,16.15,-0.495
1293,16.1625,-0.475
1294,16.175,-0.485
1295,16.1875,-0.51
1296,16.2,-0.52
1297,16.2125,-0.505
1298,16.225,-0.515
1299,16.2375,-0.52
1300,16.25,-0.535
1301,16.2625,-0.545
1302,16.275,-0.56
1303,16.2875,-0.57
1304,16.3,-0.57
1305,16.3125,-0.605
1306,16.325,-0.595
1307,16.3375,-0.535
1308,16.35,-0.445
1309,16.3625,-0.295
1310,16.375,-0.105
1311,16.3875,0.17
1312,16.4,0.495
1313,16.4125,0.79
1314,16.425,1.03
1315,16.4375,1.24
1316,16.45,1.43
1317,16.4625,1.48
1318,16.475,1.31
1319,16.4875,0.925
1320,16.5,0.495
1321,16.5125,0.075
1322,16.525,-0.255
1323,16.5375,-0.46
1324,16.55,-0.57
1325,16.5625,-0.635
1326,16.575,-0.685
1327,16.5875,-0.695
1328,16.6,-0.675
1329,16.6125,-0.655
1330,16.625,-0.65
1331,16.6375,-0.66
1332,16.65,-0.665
1333,16.6625,-0.65
1334,16.675,-0.625
1335,16.6875,-0.615
1336,16.7,-0.62
1337,16.7125,-0.64
1338,16.725,-0.65
1339,16.7375,-0.625
1340,16.75,-0.595
1341,16.7625,-0.545
1342,16.775,-0.535
1343,16.7875,-0.54
1344,16.8,-0.53
1345,16.8125,-0.51
1346,16.825,-0.51
1347,16.8375,-0.475
1348,16.85,-0.465
1349,16.8625,-0.465
1350,16.875,-0.47
1351,16.8875,-0.465
1352,16.9,-0.45
1353,16.9125,-0.435
1354,16.925,-0.415
1355,16.9375,-0.42
1356,16.95,-0.42
1357,16.9625,-0.425
1358,16.975,-0.43
1359,16.9875,-0.4
1360,17.0,-0.395
1361,17.0125,-0.4
1362,17.025,-0.38
1363,17.0375,-0.345
1364,17.05,-0.305
1365,17.0625,-0.305
1366,17.075,-0.335
1367,17.0875,-0.345
1368,17.1,-0.365
1369,17.1125,-0.35
1370,17.125,-0.32
1371,17.1375,-0.285
1372,17.15,-0.295
1373,17.1625,-0.305
1374,17.175,-0.35
1375,17.1875,-0.37
1376,17.2,-0.36
1377,17.2125,-0.36
1378,17.225,-0.38
1379,17.2375,-0.415
1380,17.25,-0.41
1381,17.2625,-0.405
1382,17.275,-0.43
1383,17.2875,-0.43
1384,17.3,-0.455
1385,17.3125,-0.48
1386,17.325,-0.47
1387,17.3375,-0.46
1388,17.35,-0.43
1389,17.3625,-0.4
1390,17.375,-0.395
1391,17.3875,-0.4
1392,17.4,-0.405
1393,17.4125,-0.39
1394,17.425,-0.365
1395,17.4375,-0.35
1396,17.45,-0.32
1397,17.4625,-0.31
1398,17.475,-0.31
1399,17.4875,-0.32
1400,17.5,-0.32
1401,17.5125,-0.305
1402,17.525,-0.31
1403,17.5375,-0.315
1404,17.55,-0.325
1405,17.5625,-0.305
1406,17.575,-0.27
1407,17.5875,-0.26
1408,17.6,-0.255
1409,17.6125,-0.27
1410,17.625,-0.285
1411,17.6375,-0.3
1412,17.65,-0.35
1413,17.6625,-0.365
1414,17.675,-0.385
1415,17.6875,-0.41
1416,17.7,-0.44
1417,17.7125,-0.445
1418,17.725,-0.425
1419,17.7375,-0.395
1420,17.75,-0.38
1421,17.7625,-0.4
1422,17.775,-0.425
1423,17.7875,-0.425
1424,17.8,-0.415
1425,17.8125,-0.4
1426,17.825,-0.395
1427,17.8375,-0.395
1428,17.85,-0.365
1429,17.8625,-0.335
1430,17.875,-0.335
1431,17.8875,-0.295
1432,17.9,-0.265
1433,17.9125,-0.26
1434,17.925,-0.24
1435,17.9375,-0.2
1436,17.95,-0.175
1437,17.9625,-0.175
1438,17.975,-0.17
1439,17.9875,-0.175
1440,18.0,-0.185
1441,18.0125,-0.185
1442,18.025,-0.19
1443,18.0375,-0.175
1444,18.05,-0.17
1445,18.0625,-0.14
1446,18.075,-0.07
1447,18.0875,0.005
1448,18.1,0.035
1449,18.1125,0.045
1450,18.125,0.0
1451,18.1375,-0.06
1452,18.15,-0.07
1453,18.1625,-0.055
1454,18.175,-0.065
1455,18.1875,-0.07
1456,18.2,-0.095
1457,18.2125,-0.125
1458,18.225,-0.14
1459,18.2375,-0.14
1460,18.25,-0.13
1461,18.2625,-0.135
1462,18.275,-0.145
1463,18.2875,-0.19
1464,18.3,-0.2
1465,18.3125,-0.21
1466,18.325,-0.205
1467,18.3375,-0.2
1468,18.35,-0.205
1469,18.3625,-0.245
1470,18.375,-0.26
1471,18.3875,-0.26
1472,18.4,-0.235
1473,18.4125,-0.2
1474,18.425,-0.215
1475,18.4375,-0.21
1476,18.45,-0.225
1477,18.4625,-0.23
1478,18.475,-0.21
1479,18.4875,-0.185
1480,18.5,-0.165
1481,18.5125,-0.165
1482,18.525,-0.17
1483,18.5375,-0.16
1484,18.55,-0.165
1485,18.5625,-0.16
1486,18.575,-0.16
1487,18.5875,-0.17
1488,18.6,-0.205
1489,18.6125,-0.21
1490,18.625,-0.22
1491,18.6375,-0.165
1492,18.65,-0.095
1493,18.6625,-0.005
1494,18.675,0.145
1495,18.6875,0.325
1496,18.7,0.535
1497,18.7125,0.795
1498,18.725,1.055
1499,18.7375,1.27
1500,18.75,1.44
1501,18.7625,1.5
1502,18.775,1.335
1503,18.7875,1.0
1504,18.8,0.63
1505,18.8125,0.27
1506,18.825,-0.01
1507,18.8375,-0.145
1508,18.85,-0.17
1509,18.8625,-0.195
1510,18.875,-0.25
1511,18.8875,-0.3
1512,18.9,-0.31
1513,18.9125,-0.31
1514,18.925,-0.32
1515,18.9375,-0.34
1516,18.95,-0.365
1517,18.9625,-0.385
1518,18.975,-0.4
1519,18.9875,-0.4
1520,19.0,-0.375
1521,19.0125,-0.34
1522,19.025,-0.31
1523,19.0375,-0.295
1524,19.05,-0.305
1525,19.0625,-0.305
1526,19.075,-0.285
1527,19.0875,-0.28
1528,19.1,-0.28
1529,19.1125,-0.285
1530,19.125,-0.29
1531,19.1375,-0.295
1532,19.15,-0.275
1533,19.1625,-0.24
1534,19.175,-0.23
1535,19.1875,-0.22
1536,19.2,-0.215
1537,19.2125,-0.195
1538,19.225,-0.13
1539,19.2375,-0.07
1540,19.25,-0.04
1541,19.2625,-0.015
1542,19.275,0.025
1543,19.2875,0.07
1544,19.3,0.125
1545,19.3125,0.175
1546,19.325,0.235
1547,19.3375,0.31
1548,19.35,0.39
1549,19.3625,0.38
1550,19.375,0.305
1551,19.3875,0.285
1552,19.4,0.32
1553,19.4125,0.36
1554,19.425,0.36
1555,19.4375,0.32
1556,19.45,0.275
1557,19.4625,0.215
1558,19.475,0.17
1559,19.4875,0.13
1560,19.5,0.14
1561,19.5125,0.195
1562,19.525,0.27
1563,19.5375,0.34
1564,19.55,0.335
1565,19.5625,0.25
1566,19.575,0.17
1567,19.5875,0.1
1568,19.6,0.07
1569,19.6125,0.02
1570,19.625,-0.025
1571,19.6375,-0.055
1572,19.65,-0.05
1573,19.6625,-0.04
1574,19.675,-0.06
1575,19.6875,-0.125
1576,19.7,-0.12
1577,19.7125,-0.065
1578,19.725,-0.02
1579,19.7375,0.0
1580,19.75,0.025
1581,19.7625,0.065
1582,19.775,0.075
1583,19.7875,0.035
1584,19.8,0.0
1585,19.8125,0.005
1586,19.825,0.005
1587,19.8375,0.035
1588,19.85,0.025
1589,19.8625,0.0
1590,19.875,-0.04
1591,19.8875,-0.08
1592,19.9,-0.115
1593,19.9125,-0.13
1594,19.925,-0.145
1595,19.9375,-0.135
1596,19.95,-0.145
1597,19.9625,-0.16
1598,19.975,-0.155
1599,19.9875,-0.15
1600,20.0,-0.14
1601,20.0125,-0.14
1602,20.025,-0.145
1603,20.0375,-0.14
1604,20.05,-0.125
1605,20.0625,-0.13
1606,20.075,-0.155
1607,20.0875,-0.215
1608,20.1,-0.285
1609,20.1125,-0.325
1610,20.125,-0.35
1611,20.1375,-0.345
1612,20.15,-0.34
1613,20.1625,-0.345
1614,20.175,-0.365
1615,20.1875,-0.37
1616,20.2,-0.37
1617,20.2125,-0.35
1618,20.225,-0.33
1619,20.2375,-0.345
1620,20.25,-0.35
1621,20.2625,-0.345
1622,20.275,-0.31
1623,20.2875,-0.285
1624,20.3,-0.285
1625,20.3125,-0.29
1626,20.325,-0.295
1627,20.3375,-0.305
1628,20.35,-0.305
1629,20.3625,-0.285
1630,20.375,-0.275
1631,20.3875,-0.28
1632,20.4,-0.29
1633,20.4125,-0.285
1634,20.425,-0.25
1635,20.4375,-0.22
1636,20.45,-0.215
1637,20.4625,-0.195
1638,20.475,-0.185
1639,20.4875,-0.16
1640,20.5,-0.145
1641,20.5125,-0.145
1642,20.525,-0.15
1643,20.5375,-0.17
1644,20.55,-0.205
1645,20.5625,-0.2
1646,20.575,-0.195
1647,20.5875,-0.175
1648,20.6,-0.205
1649,20.6125,-0.26
1650,20.625,-0.305
1651,20.6375,-0.335
1652,20.65,-0.35
1653,20.6625,-0.36
1654,20.675,-0.4
1655,20.6875,-0.435
1656,20.7,-0.455
1657,20.7125,-0.45
1658,20.725,-0.425
1659,20.7375,-0.44
1660,20.75,-0.44
1661,20.7625,-0.455
1662,20.775,-0.435
1663,20.7875,-0.4
1664,20.8,-0.38
1665,20.8125,-0.39
1666,20.825,-0.435
1667,20.8375,-0.45
1668,20.85,-0.46
1669,20.8625,-0.49
1670,20.875,-0.51
1671,20.8875,-0.51
1672,20.9,-0.495
1673,20.9125,-0.49
1674,20.925,-0.49
1675,20.9375,-0.49
1676,20.95,-0.485
1677,20.9625,-0.475
1678,20.975,-0.46
1679,20.9875,-0.465
1680,21.0,-0.45
1681,21.0125,-0.39
1682,21.025,-0.315
1683,21.0375,-0.21
1684,21.05,-0.11
1685,21.0625,0.04
1686,21.075,0.23
1687,21.0875,0.47
1688,21.1,0.725
1689,21.1125,0.98
1690,21.125,1.16
1691,21.1375,1.23
1692,21.15,1.095
1693,21.1625,0.785
1694,21.175,0.375
1695,21.1875,-0.01
1696,21.2,-0.26
1697,21.2125,-0.375
1698,21.225,-0.385
1699,21.2375,-0.39
1700,21.25,-0.395
1701,21.2625,-0.395
1702,21.275,-0.385
1703,21.2875,-0.38
1704,21.3,-0.37
1705,21.3125,-0.38
1706,21.325,-0.4
1707,21.3375,-0.38
1708,21.35,-0.385
1709,21.3625,-0.39
1710,21.375,-0.38
1711,21.3875,-0.35
1712,21.4,-0.325
1713,21.4125,-0.305
1714,21.425,-0.3
1715,21.4375,-0.315
1716,21.45,-0.33
1717,21.4625,-0.335
1718,21.475,-0.325
1719,21.4875,-0.32
1720,21.5,-0.325
1721,21.5125,-0.34
1722,21.525,-0.345
1723,21.5375,-0.345
1724,21.55,-0.33
1725,21.5625,-0.32
1726,21.575,-0.335
1727,21.5875,-0.375
1728,21.6,-0.405
1729,21.6125,-0.43
1730,21.625,-0.41
1731,21.6375,-0.375
1732,21.65,-0.385
1733,21.6625,-0.41
1734,21.675,-0.42
1735,21.6875,-0.44
1736,21.7,-0.45
1737,21.7125,-0.475
1738,21.725,-0.5
1739,21.7375,-0.53
1740,21.75,-0.545
1741,21.7625,-0.545
1742,21.775,-0.505
1743,21.7875,-0.47
1744,21.8,-0.44
1745,21.8125,-0.425
1746,21.825,-0.42
1747,21.8375,-0.43
1748,21.85,-0.42
1749,21.8625,-0.4
1750,21.875,-0.395
1751,21.8875,-0.42
1752,21.9,-0.415
1753,21.9125,-0.41
1754,21.925,-0.385
1755,21.9375,-0.355
1756,21.95,-0.36
1757,21.9625,-0.355
1758,21.975,-0.345
1759,21.9875,-0.34
1760,22.0,-0.325
1761,22.0125,-0.315
1762,22.025,-0.295
1763,22.0375,-0.3
1764,22.05,-0.31
1765,22.0625,-0.315
1766,22.075,-0.33
1767,22.0875,-0.325
1768,22.1,-0.31
1769,22.1125,-0.3
1770,22.125,-0.305
1771,22.1375,-0.31
1772,22.15,-0.29
1773,22.1625,-0.28
1774,22.175,-0.25
1775,22.1875,-0.215
1776,22.2,-0.18
1777,22.2125,-0.15
1778,22.225,-0.12
1779,22.2375,-0.125
1780,22.25,-0.115
1781,22.2625,-0.17
1782,22.275,-0.22
1783,22.2875,-0.26
1784,22.3,-0.28
1785,22.3125,-0.26
1786,22.325,-0.255
1787,22.3375,-0.3
1788,22.35,-0.355
1789,22.3625,-0.405
1790,22.375,-0.395
1791,22.3875,-0.42
1792,22.4,-0.405
1793,22.4125,-0.43
1794,22.425,-0.475
1795,22.4375,-0.505
1796,22.45,-0.54
1797,22.4625,-0.555
1798,22.475,-0.555
1799,22.4875,-0.565
1800,22.5,-0.575
1801,22.5125,-0.605
1802,22.525,-0.59
1803,22.5375,-0.585
1804,22.55,-0.56
1805,22.5625,-0.545
1806,22.575,-0.55
1807,22.5875,-0.56
1808,22.6,-0.585
1809,22.6125,-0.63
1810,22.625,-0.65
1811,22.6375,-0.66
1812,22.65,-0.68
1813,22.6625,-0.69
1814,22.675,-0.655
1815,22.6875,-0.59
1816,22.7,-0.54
1817,22.7125,-0.515
1818,22.725,-0.545
1819,22.7375,-0.55
1820,22.75,-0.545
1821,22.7625,-0.535
1822,22.775,-0.525
1823,22.7875,-0.53
1824,22.8,-0.54
1825,22.8125,-0.54
1826,22.825,-0.525
1827,22.8375,-0.515
1828,22.85,-0.53
1829,22.8625,-0.54
1830,22.875,-0.56
1831,22.8875,-0.555
1832,22.9,-0.58
1833,22.9125,-0.58
1834,22.925,-0.575
1835,22.9375,-0.59
1836,22.95,-0.625
1837,22.9625,-0.655
1838,22.975,-0.695
1839,22.9875,-0.69
1840,23.0,-0.7
1841,23.0125,-0.72
1842,23.025,-0.715
1843,23.0375,-0.695
1844,23.05,-0.67
1845,23.0625,-0.64
1846,23.075,-0.665
1847,23.0875,-0.725
1848,23.1,-0.78
1849,23.1125,-0.76
1850,23.125,-0.7
1851,23.1375,-0.67
1852,23.15,-0.625
1853,23.1625,-0.625
1854,23.175,-0.635
1855,23.1875,-0.685
1856,23.2,-0.74
1857,23.2125,-0.76
1858,23.225,-0.755
1859,23.2375,-0.755
1860,23.25,-0.765
1861,23.2625,-0.76
1862,23.275,-0.755
1863,23.2875,-0.74
1864,23.3,-0.73
1865,23.3125,-0.71
1866,23.325,-0.715
1867,23.3375,-0.745
1868,23.35,-0.78
1869,23.3625,-0.795
1870,23.375,-0.815
1871,23.3875,-0.79
1872,23.4,-0.735
1873,23.4125,-0.625
1874,23.425,-0.46
1875,23.4375,-0.225
1876,23.45,0.065
1877,23.4625,0.34
1878,23.475,0.56
1879,23.4875,0.73
1880,23.5,0.78
1881,23.5125,0.62
1882,23.525,0.27
1883,23.5375,-0.135
1884,23.55,-0.51
1885,23.5625,-0.755
1886,23.575,-0.83
1887,23.5875,-0.805
1888,23.6,-0.805
1889,23.6125,-0.815
1890,23.625,-0.82
1891,23.6375,-0.785
1892,23.65,-0.715
1893,23.6625,-0.655
1894,23.675,-0.64
1895,23.6875,-0.705
1896,23.7,-0.785
1897,23.7125,-0.835
1898,23.725,-0.83
1899,23.7375,-0.8
1900,23.75,-0.81
1901,23.7625,-0.805
1902,23.775,-0.85
1903,23.7875,-0.855
1904,23.8,-0.85
1905,23.8125,-0.87
1906,23.825,-0.905
1907,23.8375,-0.925
1908,23.85,-0.955
1909,23.8625,-0.955
1910,23.875,-0.955
1911,23.8875,-0.94
1912,23.9,-0.945
1913,23.9125,-0.99
1914,23.925,-1.02
1915,23.9375,-1.04
1916,23.95,-1.05
1917,23.9625,-1.025
1918,23.975,-1.025
1919,23.9875,-1.025
1920,24.0,-1.005
1921,24.0125,-0.965
1922,24.025,-0.92
1923,24.0375,-0.89
1924,24.05,-0.9
1925,24.0625,-0.92
1926,24.075,-0.935
1927,24.0875,-0.925
1928,24.1,-0.88
1929,24.1125,-0.86
1930,24.125,-0.88
1931,24.1375,-0.885
1932,24.15,-0.88
1933,24.1625,-0.855
1934,24.175,-0.83
1935,24.1875,-0.82
1936,24.2,-0.805
1937,24.2125,-0.825
1938,24.225,-0.835
1939,24.2375,-0.84
1940,24.25,-0.8
1941,24.2625,-0.75
1942,24.275,-0.705
1943,24.2875,-0.69
1944,24.3,-0.71
1945,24.3125,-0.74
1946,24.325,-0.755
1947,24.3375,-0.75
1948,24.35,-0.725
1949,24.3625,-0.725
1950,24.375,-0.72
1951,24.3875,-0.71
1952,24.4,-0.68
1953,24.4125,-0.66
1954,24.425,-0.665
1955,24.4375,-0.68
1956,24.45,-0.675
1957,24.4625,-0.645
1958,24.475,-0.625
1959,24.4875,-0.6
1960,24.5,-0.585
1961,24.5125,-0.58
1962,24.525,-0.605
1963,24.5375,-0.56
1964,24.55,-0.545
1965,24.5625,-0.54
1966,24.575,-0.535
1967,24.5875,-0.545
1968,24.6,-0.55
1969,24.6125,-0.555
1970,24.625,-0.54
1971,24.6375,-0.515
1972,24.65,-0.53
1973,24.6625,-0.56
1974,24.675,-0.575
1975,24.6875,-0.605
1976,24.7,-0.61
1977,24.7125,-0.59
1978,24.725,-0.59
1979,24.7375,-0.62
1980,24.75,-0.65
1981,24.7625,-0.665
1982,24.775,-0.665
1983,24.7875,-0.665
1984,24.8,-0.715
1985,24.8125,-0.765
1986,24.825,-0.8
1987,24.8375,-0.82
1988,24.85,-0.81
1989,24.8625,-0.805
1990,24.875,-0.815
1991,24.8875,-0.82
1992,24.9,-0.845
1993,24.9125,-0.855
1994,24.925,-0.845
1995,24.9375,-0.885
1996,24.95,-0.9
1997,24.9625,-0.915
1998,24.975,-0.94
1999,24.9875,-0.935
2000,25.0,-0.9
2001,25.0125,-0.895
2002,25.025,-0.895
2003,25.0375,-0.92
2004,25.05,-0.925
2005,25.0625,-0.915
2006,25.075,-0.89
2007,25.0875,-0.86
2008,25.1,-0.855
2009,25.1125,-0.865
2010,25.125,-0.89
2011,25.1375,-0.875
2012,25.15,-0.82
2013,25.1625,-0.755
2014,25.175,-0.74
2015,25.1875,-0.755
2016,25.2,-0.79
2017,25.2125,-0.84
2018,25.225,-0.87
2019,25.2375,-0.855
2020,25.25,-0.85
2021,25.2625,-0.845
2022,25.275,-0.865
2023,25.2875,-0.86
2024,25.3,-0.845
2025,25.3125,-0.845
2026,25.325,-0.89
2027,25.3375,-0.94
2028,25.35,-0.98
2029,25.3625,-0.97
2030,25.375,-0.95
2031,25.3875,-0.945
2032,25.4,-0.945
2033,25.4125,-0.95
2034,25.425,-0.94
2035,25.4375,-0.91
2036,25.45,-0.89
2037,25.4625,-0.885
2038,25.475,-0.9
2039,25.4875,-0.92
2040,25.5,-0.93
2041,25.5125,-0.915
2042,25.525,-0.88
2043,25.5375,-0.86
2044,25.55,-0.85
2045,25.5625,-0.845
2046,25.575,-0.835
2047,25.5875,-0.835
2048,25.6,-0.85
2049,25.6125,-0.895
2050,25.625,-0.88
2051,25.6375,-0.87
2052,25.65,-0.84
2053,25.6625,-0.82
2054,25.675,-0.82
2055,25.6875,-0.82
2056,25.7,-0.81
2057,25.7125,-0.785
2058,25.725,-0.67
2059,25.7375,-0.55
2060,25.75,-0.375
2061,25.7625,-0.12
2062,25.775,0.165
2063,25.7875,0.42
2064,25.8,0.615
2065,25.8125,0.705
2066,25.825,0.59
2067,25.8375,0.245
2068,25.85,-0.205
2069,25.8625,-0.62
2070,25.875,-0.945
2071,25.8875,-1.11
2072,25.9,-1.14
2073,25.9125,-1.08
2074,25.925,-1.005
2075,25.9375,-0.98
2076,25.95,-0.98
2077,25.9625,-0.965
2078,25.975,-0.96
2079,25.9875,-0.955
2080,26.0,-0.945
2081,26.0125,-0.95
2082,26.025,-0.97
2083,26.0375,-0.985
2084,26.05,-0.97
2085,26.0625,-0.98
2086,26.075,-1.01
2087,26.0875,-1.015
2088,26.1,-1.025
2089,26.1125,-1.04
2090,26.125,-1.045
2091,26.1375,-1.02
2092,26.15,-0.975
2093,26.1625,-0.985
2094,26.175,-0.975
2095,26.1875,-0.965
2096,26.2,-0.955
2097,26.2125,-0.925
2098,26.225,-0.93
2099,26.2375,-0.94
2100,26.25,-0.93
2101,26.2625,-0.92
2102,26.275,-0.915
2103,26.2875,-0.89
2104,26.3,-0.85
2105,26.3125,-0.85
2106,26.325,-0.86
2107,26.3375,-0.875
2108,26.35,-0.85
2109,26.3625,-0.83
2110,26.375,-0.835
2111,26.3875,-0.85
2112,26.4,-0.875
2113,26.4125,-0.88
2114,26.425,-0.875
2115,26.4375,-0.85
2116,26.45,-0.85
2117,26.4625,-0.88
2118,26.475,-0.895
2119,26.4875,-0.92
2120,26.5,-0.91
2121,26.5125,-0.915
2122,26.525,-0.935
2123,26.5375,-0.95
2124,26.55,-0.95
2125,26.5625,-0.91
2126,26.575,-0.865
2127,26.5875,-0.82
2128,26.6,-0.81
2129,26.6125,-0.82
2130,26.625,-0.835
2131,26.6375,-0.825
2132,26.65,-0.785
2133,26.6625,-0.74
2134,26.675,-0.73
2135,26.6875,-0.735
2136,26.7,-0.765
2137,26.7125,-0.765
2138,26.725,-0.725
2139,26.7375,-0.685
2140,26.75,-0.665
2141,26.7625,-0.66
2142,26.775,-0.67
2143,26.7875,-0.65
2144,26.8,-0.625
2145,26.8125,-0.585
2146,26.825,-0.575
2147,26.8375,-0.595
2148,26.85,-0.605
2149,26.8625,-0.605
2150,26.875,-0.59
2151,26.8875,-0.57
2152,26.9,-0.56
2153,26.9125,-0.545
2154,26.925,-0.545
2155,26.9375,-0.56
2156,26.95,-0.59
2157,26.9625,-0.595
2158,26.975,-0.605
2159,26.9875,-0.615
2160,27.0,-0.615
2161,27.0125,-0.63
2162,27.025,-0.625
2163,27.0375,-0.635
2164,27.05,-0.67
2165,27.0625,-0.715
2166,27.075,-0.74
2167,27.0875,-0.745
2168,27.1,-0.735
2169,27.1125,-0.735
2170,27.125,-0.75
2171,27.1375,-0.75
2172,27.15,-0.75
2173,27.1625,-0.76
2174,27.175,-0.73
2175,27.1875,-0.68
2176,27.2,-0.675
2177,27.2125,-0.685
2178,27.225,-0.705
2179,27.2375,-0.695
2180,27.25,-0.665
2181,27.2625,-0.66
2182,27.275,-0.675
2183,27.2875,-0.71
2184,27.3,-0.705
2185,27.3125,-0.69
2186,27.325,-0.67
2187,27.3375,-0.655
2188,27.35,-0.615
2189,27.3625,-0.6
2190,27.375,-0.59
2191,27.3875,-0.58
2192,27.4,-0.54
2193,27.4125,-0.52
2194,27.425,-0.515
2195,27.4375,-0.505
2196,27.45,-0.51
2197,27.4625,-0.48
2198,27.475,-0.44
2199,27.4875,-0.42
2200,27.5,-0.435
2201,27.5125,-0.46
2202,27.525,-0.47
2203,27.5375,-0.46
2204,27.55,-0.425
2205,27.5625,-0.4
2206,27.575,-0.395
2207,27.5875,-0.415
2208,27.6,-0.435
2209,27.6125,-0.46
2210,27.625,-0.455
2211,27.6375,-0.43
2212,27.65,-0.445
2213,27.6625,-0.48
2214,27.675,-0.52
2215,27.6875,-0.545
2216,27.7,-0.54
2217,27.7125,-0.52
2218,27.725,-0.52
2219,27.7375,-0.525
2220,27.75,-0.525
2221,27.7625,-0.53
2222,27.775,-0.525
2223,27.7875,-0.525
2224,27.8,-0.515
2225,27.8125,-0.51
2226,27.825,-0.54
2227,27.8375,-0.54
2228,27.85,-0.545
2229,27.8625,-0.54
2230,27.875,-0.55
2231,27.8875,-0.565
2232,27.9,-0.57
2233,27.9125,-0.585
2234,27.925,-0.56
2235,27.9375,-0.545
2236,27.95,-0.525
2237,27.9625,-0.525
2238,27.975,-0.545
2239,27.9875,-0.57
2240,28.0,-0.58
2241,28.0125,-0.55
2242,28.025,-0.465
2243,28.0375,-0.34
2244,28.05,-0.21
2245,28.0625,-0.015
2246,28.075,0.21
2247,28.0875,0.48
2248,28.1,0.74
2249,28.1125,0.96
2250,28.125,1.13
2251,28.1375,1.155
2252,28.15,0.965
2253,28.1625,0.62
2254,28.175,0.23
2255,28.1875,-0.09
2256,28.2,-0.355
2257,28.2125,-0.47
2258,28.225,-0.48
2259,28.2375,-0.45
2260,28.25,-0.45
2261,28.2625,-0.47
2262,28.275,-0.49
2263,28.2875,-0.465
2264,28.3,-0.45
2265,28.3125,-0.44
2266,28.325,-0.445
2267,28.3375,-0.47
2268,28.35,-0.495
2269,28.3625,-0.51
2270,28.375,-0.5
2271,28.3875,-0.485
2272,28.4,-0.5
2273,28.4125,-0.515
2274,28.425,-0.525
2275,28.4375,-0.51
2276,28.45,-0.485
2277,28.4625,-0.455
2278,28.475,-0.425
2279,28.4875,-0.44
2280,28.5,-0.455
2281,28.5125,-0.46
2282,28.525,-0.43
2283,28.5375,-0.41
2284,28.55,-0.395
2285,28.5625,-0.41
2286,28.575,-0.42
2287,28.5875,-0.395
2288,28.6,-0.37
2289,28.6125,-0.36
2290,28.625,-0.36
2291,28.6375,-0.365
2292,28.65,-0.365
2293,28.6625,-0.35
2294,28.675,-0.32
2295,28.6875,-0.29
2296,28.7,-0.3
2297,28.7125,-0.305
2298,28.725,-0.3
2299,28.7375,-0.265
2300,28.75,-0.235
2301,28.7625,-0.22
2302,28.775,-0.2
2303,28.7875,-0.185
2304,28.8,-0.165
2305,28.8125,-0.145
2306,28.825,-0.115
2307,28.8375,-0.08
2308,28.85,-0.065
2309,28.8625,-0.085
2310,28.875,-0.13
2311,28.8875,-0.14
2312,28.9,-0.125
2313,28.9125,-0.085
2314,28.925,-0.055
2315,28.9375,-0.08
2316,28.95,-0.105
2317,28.9625,-0.135
2318,28.975,-0.095
2319,28.9875,-0.05
2320,29.0,-0.015
2321,29.0125,0.0
2322,29.025,0.04
2323,29.0375,0.08
2324,29.05,0.095
2325,29.0625,0.105
2326,29.075,0.06
2327,29.0875,0.04
2328,29.1,0.04
2329,29.1125,0.07
2330,29.125,0.115
2331,29.1375,0.135
2332,29.15,0.095
2333,29.1625,0.065
2334,29.175,0.045
2335,29.1875,0.045
2336,29.2,0.055
2337,29.2125,0.04
2338,29.225,-0.005
2339,29.2375,-0.025
2340,29.25,-0.055
2341,29.2625,-0.06
2342,29.275,-0.075
2343,29.2875,-0.1
2344,29.3,-0.12
2345,29.3125,-0.155
2346,29.325,-0.205
2347,29.3375,-0.24
2348,29.35,-0.26
2349,29.3625,-0.26
2350,29.375,-0.26
2351,29.3875,-0.26
2352,29.4,-0.265
2353,29.4125,-0.255
2354,29.425,-0.265
2355,29.4375,-0.25
2356,29.45,-0.26
2357,29.4625,-0.275
2358,29.475,-0.295
2359,29.4875,-0.275
2360,29.5,-0.245
2361,29.5125,-0.225
2362,29.525,-0.215
2363,29.5375,-0.215
2364,29.55,-0.24
2365,29.5625,-0.26
2366,29.575,-0.255
2367,29.5875,-0.21
2368,29.6,-0.2
2369,29.6125,-0.215
2370,29.625,-0.245
2371,29.6375,-0.255
2372,29.65,-0.225
2373,29.6625,-0.19
2374,29.675,-0.175
2375,29.6875,-0.185
2376,29.7,-0.19
2377,29.7125,-0.17
2378,29.725,-0.105
2379,29.7375,-0.055
2380,29.75,-0.04
2381,29.7625,-0.06
2382,29.775,-0.085
2383,29.7875,-0.075
2384,29.8,-0.025
2385,29.8125,0.02
2386,29.825,0.045
2387,29.8375,0.025
2388,29.85,-0.005
2389,29.8625,-0.02
2390,29.875,-0.015
2391,29.8875,-0.005
2392,29.9,-0.02
2393,29.9125,-0.055
2394,29.925,-0.1
2395,29.9375,-0.115
2396,29.95,-0.12
2397,29.9625,-0.105
2398,29.975,-0.13
2399,29.9875,-0.165
2400,30.0,-0.195
2401,30.0125,-0.2
2402,30.025,-0.225
2403,30.0375,-0.25
2404,30.05,-0.25
2405,30.0625,-0.28
2406,30.075,-0.305
2407,30.0875,-0.305
2408,30.1,-0.285
2409,30.1125,-0.245
2410,30.125,-0.235
2411,30.1375,-0.26
2412,30.15,-0.28
2413,30.1625,-0.285
2414,30.175,-0.255
2415,30.1875,-0.23
2416,30.2,-0.2
2417,30.2125,-0.205
2418,30.225,-0.225
2419,30.2375,-0.265
2420,30.25,-0.28
2421,30.2625,-0.265
2422,30.275,-0.23
2423,30.2875,-0.135
2424,30.3,-0.01
2425,30.3125,0.155
2426,30.325,0.39
2427,30.3375,0.7
2428,30.35,1.04
2429,30.3625,1.34
2430,30.375,1.58
2431,30.3875,1.705
2432,30.4,1.61
2433,30.4125,1.33
2434,30.425,0.985
2435,30.4375,0.62
2436,30.45,0.28
2437,30.4625,0.06
2438,30.475,-0.015
2439,30.4875,-0.03
2440,30.5,-0.06
2441,30.5125,-0.08
2442,30.525,-0.075
2443,30.5375,-0.08
2444,30.55,-0.04
2445,30.5625,-0.01
2446,30.575,-0.02
2447,30.5875,-0.05
2448,30.6,-0.085
2449,30.6125,-0.095
2450,30.625,-0.105
2451,30.6375,-0.09
2452,30.65,-0.065
2453,30.6625,-0.08
2454,30.675,-0.09
2455,30.6875,-0.09
2456,30.7,-0.08
2457,30.7125,-0.06
2458,30.725,-0.05
2459,30.7375,-0.055
2460,30.75,-0.03
2461,30.7625,-0.01
2462,30.775,-0.01
2463,30.7875,0.005
2464,30.8,0.02
2465,30.8125,0.02
2466,30.825,0.015
2467,30.8375,0.01
2468,30.85,0.02
2469,30.8625,0.045
2470,30.875,0.06
2471,30.8875,0.065
2472,30.9,0.065
2473,30.9125,0.06
2474,30.925,0.07
2475,30.9375,0.09
2476,30.95,0.085
2477,30.9625,0.07
2478,30.975,0.105
2479,30.9875,0.165
2480,31.0,0.19
2481,31.0125,0.205
2482,31.025,0.175
2483,31.0375,0.165
2484,31.05,0.185
2485,31.0625,0.2
2486,31.075,0.22
2487,31.0875,0.25
2488,31.1,0.275
2489,31.1125,0.29
2490,31.125,0.28
2491,31.1375,0.27
2492,31.15,0.29
2493,31.1625,0.32
2494,31.175,0.33
2495,31.1875,0.315
2496,31.2,0.33
2497,31.2125,0.325
2498,31.225,0.36
2499,31.2375,0.38
2500,31.25,0.39
2501,31.2625,0.38
2502,31.275,0.375
2503,31.2875,0.365
2504,31.3,0.37
2505,31.3125,0.395
2506,31.325,0.425
2507,31.3375,0.445
2508,31.35,0.43
2509,31.3625,0.445
2510,31.375,0.47
2511,31.3875,0.495
2512,31.4,0.51
2513,31.4125,0.505
2514,31.425,0.46
2515,31.4375,0.47
2516,31.45,0.5
2517,31.4625,0.54
2518,31.475,0.56
2519,31.4875,0.56
2520,31.5,0.565
2521,31.5125,0.525
2522,31.525,0.525
2523,31.5375,0.555
2524,31.55,0.57
2525,31.5625,0.56
2526,31.575,0.525
2527,31.5875,0.485
2528,31.6,0.46
2529,31.6125,0.465
2530,31.625,0.46
2531,31.6375,0.455
2532,31.65,0.435
2533,31.6625,0.41
2534,31.675,0.39
2535,31.6875,0.4
2536,31.7,0.395
2537,31.7125,0.375
2538,31.725,0.33
2539,31.7375,0.31
2540,31.75,0.305
2541,31.7625,0.32
2542,31.775,0.3
2543,31.7875,0.295
2544,31.8,0.285
2545,31.8125,0.29
2546,31.825,0.33
2547,31.8375,0.345
2548,31.85,0.36
2549,31.8625,0.365
2550,31.875,0.38
2551,31.8875,0.39
2552,31.9,0.4
2553,31.9125,0.415
2554,31.925,0.42
2555,31.9375,0.415
2556,31.95,0.42
2557,31.9625,0.44
2558,31.975,0.475
2559,31.9875,0.53
2560,32.0,0.55
2561,32.0125,0.52
2562,32.025,0.465
2563,32.0375,0.465
2564,32.05,0.49
2565,32.0625,0.52
2566,32.075,0.525
2567,32.0875,0.495
2568,32.1,0.465
2569,32.1125,0.45
2570,32.125,0.455
2571,32.1375,0.46
2572,32.15,0.46
2573,32.1625,0.405
2574,32.175,0.345
2575,32.1875,0.325
2576,32.2,0.345
2577,32.2125,0.36
2578,32.225,0.365
2579,32.2375,0.355
2580,32.25,0.34
2581,32.2625,0.32
2582,32.275,0.335
2583,32.2875,0.335
2584,32.3,0.35
2585,32.3125,0.325
2586,32.325,0.31
2587,32.3375,0.31
2588,32.35,0.315
2589,32.3625,0.355
2590,32.375,0.36
2591,32.3875,0.34
2592,32.4,0.295
2593,32.4125,0.295
2594,32.425,0.325
2595,32.4375,0.36
2596,32.45,0.35
2597,32.4625,0.28
2598,32.475,0.205
2599,32.4875,0.165
2600,32.5,0.205
2601,32.5125,0.325
2602,32.525,0.445
2603,32.5375,0.63
2604,32.55,0.85
2605,32.5625,1.13
2606,32.575,1.475
2607,32.5875,1.785
2608,32.6,1.96
2609,32.6125,1.905
2610,32.625,1.64
2611,32.6375,1.31
2612,32.65,1.01
2613,32.6625,0.735
2614,32.675,0.515
2615,32.6875,0.415
2616,32.7,0.395
2617,32.7125,0.405
2618,32.725,0.425
2619,32.7375,0.43
2620,32.75,0.445
2621,32.7625,0.435
2622,32.775,0.42
2623,32.7875,0.41
2624,32.8,0.415
2625,32.8125,0.44
2626,32.825,0.44
2627,32.8375,0.415
2628,32.85,0.385
2629,32.8625,0.36
2630,32.875,0.35
2631,32.8875,0.375
2632,32.9,0.37
2633,32.9125,0.345
2634,32.925,0.315
2635,32.9375,0.31
2636,32.95,0.325
2637,32.9625,0.36
2638,32.975,0.345
2639,32.9875,0.32
2640,33.0,0.31
2641,33.0125,0.315
2642,33.025,0.325
2643,33.0375,0.365
2644,33.05,0.365
2645,33.0625,0.34
2646,33.075,0.31
2647,33.0875,0.32
2648,33.1,0.345
2649,33.1125,0.38
2650,33.125,0.39
2651,33.1375,0.395
2652,33.15,0.385
2653,33.1625,0.41
2654,33.175,0.42
2655,33.1875,0.445
2656,33.2,0.455
2657,33.2125,0.445
2658,33.225,0.43
2659,33.2375,0.435
2660,33.25,0.455
2661,33.2625,0.47
2662,33.275,0.455
2663,33.2875,0.44
2664,33.3,0.435
2665,33.3125,0.455
2666,33.325,0.495
2667,33.3375,0.54
2668,33.35,0.56
2669,33.3625,0.56
2670,33.375,0.545
2671,33.3875,0.56
2672,33.4,0.58
2673,33.4125,0.6
2674,33.425,0.62
2675,33.4375,0.63
2676,33.45,0.62
2677,33.4625,0.62
2678,33.475,0.62
2679,33.4875,0.635
2680,33.5,0.66
2681,33.5125,0.675
2682,33.525,0.68
2683,33.5375,0.685
2684,33.55,0.725
2685,33.5625,0.745
2686,33.575,0.75
2687,33.5875,0.75
2688,33.6,0.735
2689,33.6125,0.73
2690,33.625,0.75
2691,33.6375,0.77
2692,33.65,0.775
2693,33.6625,0.775
2694,33.675,0.74
2695,33.6875,0.72
2696,33.7,0.7
2697,33.7125,0.685
2698,33.725,0.675
2699,33.7375,0.655
2700,33.75,0.62
2701,33.7625,0.585
2702,33.775,0.555
2703,33.7875,0.56
2704,33.8,0.545
2705,33.8125,0.53
2706,33.825,0.51
2707,33.8375,0.505
2708,33.85,0.515
2709,33.8625,0.535
2710,33.875,0.52
2711,33.8875,0.51
2712,33.9,0.505
2713,33.9125,0.5
2714,33.925,0.495
2715,33.9375,0.51
2716,33.95,0.535
2717,33.9625,0.55
2718,33.975,0.545
2719,33.9875,0.53
2720,34.0,0.555
2721,34.0125,0.58
2722,34.025,0.59
2723,34.0375,0.565
2724,34.05,0.555
2725,34.0625,0.58
2726,34.075,0.64
2727,34.0875,0.695
2728,34.1,0.705
2729,34.1125,0.71
2730,34.125,0.695
2731,34.1375,0.7
2732,34.15,0.695
2733,34.1625,0.705
2734,34.175,0.695
2735,34.1875,0.675
2736,34.2,0.645
2737,34.2125,0.62
2738,34.225,0.625
2739,34.2375,0.61
2740,34.25,0.585
2741,34.2625,0.55
2742,34.275,0.51
2743,34.2875,0.475
2744,34.3,0.485
2745,34.3125,0.51
2746,34.325,0.545
2747,34.3375,0.55
2748,34.35,0.52
2749,34.3625,0.495
2750,34.375,0.485
2751,34.3875,0.48
2752,34.4,0.475
2753,34.4125,0.44
2754,34.425,0.43
2755,34.4375,0.41
2756,34.45,0.415
2757,34.4625,0.47
2758,34.475,0.505
2759,34.4875,0.495
2760,34.5,0.45
2761,34.5125,0.42
2762,34.525,0.43
2763,34.5375,0.435
2764,34.55,0.41
2765,34.5625,0.375
2766,34.575,0.33
2767,34.5875,0.3
2768,34.6,0.28
2769,34.6125,0.275
2770,34.625,0.32
2771,34.6375,0.43
2772,34.65,0.585
2773,34.6625,0.79
2774,34.675,1.02
2775,34.6875,1.28
2776,34.7,1.53
2777,34.7125,1.725
2778,34.725,1.87
2779,34.7375,1.925
2780,34.75,1.795
2781,34.7625,1.465
2782,34.775,1.11
2783,34.7875,0.75
2784,34.8,0.475
2785,34.8125,0.36
2786,34.825,0.35
2787,34.8375,0.4
2788,34.85,0.43
2789,34.8625,0.425
2790,34.875,0.43
2791,34.8875,0.445
2792,34.9,0.455
2793,34.9125,0.48
2794,34.925,0.47
2795,34.9375,0.46
2796,34.95,0.46
2797,34.9625,0.485
2798,34.975,0.5
2799,34.9875,0.515
2800,35.0,0.5
2801,35.0125,0.475
2802,35.025,0.485
2803,35.0375,0.49
2804,35.05,0.515
2805,35.0625,0.53
2806,35.075,0.555
2807,35.0875,0.6
2808,35.1,0.605
2809,35.1125,0.6
2810,35.125,0.57
2811,35.1375,0.585
2812,35.15,0.565
2813,35.1625,0.57
2814,35.175,0.545
2815,35.1875,0.525
2816,35.2,0.535
2817,35.2125,0.575
2818,35.225,0.585
2819,35.2375,0.585
2820,35.25,0.56
2821,35.2625,0.56
2822,35.275,0.555
2823,35.2875,0.575
2824,35.3,0.585
2825,35.3125,0.6
2826,35.325,0.595
2827,35.3375,0.565
2828,35.35,0.58
2829,35.3625,0.6
2830,35.375,0.605
2831,35.3875,0.605
2832,35.4,0.605
2833,35.4125,0.615
2834,35.425,0.645
2835,35.4375,0.685
2836,35.45,0.71
2837,35.4625,0.7
2838,35.475,0.7
2839,35.4875,0.695
2840,35.5,0.705
2841,35.5125,0.745
2842,35.525,0.755
2843,35.5375,0.775
2844,35.55,0.78
2845,35.5625,0.78
2846,35.575,0.78
2847,35.5875,0.79
2848,35.6,0.81
2849,35.6125,0.83
2850,35.625,0.825
2851,35.6375,0.83
2852,35.65,0.84
2853,35.6625,0.86
2854,35.675,0.87
2855,35.6875,0.875
2856,35.7,0.88
2857,35.7125,0.87
2858,35.725,0.89
2859,35.7375,0.92
2860,35.75,0.935
2861,35.7625,0.93
2862,35.775,0.915
2863,35.7875,0.92
2864,35.8,0.91
2865,35.8125,0.91
2866,35.825,0.94
2867,35.8375,0.955
2868,35.85,0.94
2869,35.8625,0.915
2870,35.875,0.915
2871,35.8875,0.95
2872,35.9,0.94
2873,35.9125,0.905
2874,35.925,0.875
2875,35.9375,0.865
2876,35.95,0.86
2877,35.9625,0.845
2878,35.975,0.815
2879,35.9875,0.8
2880,36.0,0.775
2881,36.0125,0.77
2882,36.025,0.78
2883,36.0375,0.76
2884,36.05,0.725
2885,36.0625,0.71
2886,36.075,0.7
2887,36.0875,0.695
2888,36.1,0.71
2889,36.1125,0.695
2890,36.125,0.69
2891,36.1375,0.685
2892,36.15,0.67
2893,36.1625,0.65
2894,36.175,0.65
2895,36.1875,0.66
2896,36.2,0.645
2897,36.2125,0.645
2898,36.225,0.66
2899,36.2375,0.695
2900,36.25,0.72
2901,36.2625,0.75
2902,36.275,0.77
2903,36.2875,0.79
2904,36.3,0.8
2905,36.3125,0.81
2906,36.325,0.845
2907,36.3375,0.88
2908,36.35,0.9
2909,36.3625,0.88
2910,36.375,0.84
2911,36.3875,0.815
2912,36.4,0.82
2913,36.4125,0.83
2914,36.425,0.84
2915,36.4375,0.83
2916,36.45,0.795
2917,36.4625,0.775
2918,36.475,0.76
2919,36.4875,0.75
2920,36.5,0.745
2921,36.5125,0.72
2922,36.525,0.68
2923,36.5375,0.64
2924,36.55,0.635
2925,36.5625,0.64
2926,36.575,0.645
2927,36.5875,0.655
2928,36.6,0.655
2929,36.6125,0.645
2930,36.625,0.645
2931,36.6375,0.645
2932,36.65,0.63
2933,36.6625,0.615
2934,36.675,0.6
2935,36.6875,0.6
2936,36.7,0.61
2937,36.7125,0.615
2938,36.725,0.625
2939,36.7375,0.605
2940,36.75,0.57
2941,36.7625,0.57
2942,36.775,0.565
2943,36.7875,0.55
2944,36.8,0.52
2945,36.8125,0.485
2946,36.825,0.45
2947,36.8375,0.485
2948,36.85,0.585
2949,36.8625,0.74
2950,36.875,0.93
2951,36.8875,1.145
2952,36.9,1.4
2953,36.9125,1.64
2954,36.925,1.845
2955,36.9375,2.045
2956,36.95,2.09
2957,36.9625,1.935
2958,36.975,1.55
2959,36.9875,1.14
2960,37.0,0.79
2961,37.0125,0.595
2962,37.025,0.545
2963,37.0375,0.55
2964,37.05,0.57
2965,37.0625,0.575
2966,37.075,0.585
2967,37.0875,0.59
2968,37.1,0.585
2969,37.1125,0.555
2970,37.125,0.53
2971,37.1375,0.525
2972,37.15,0.53
2973,37.1625,0.54
2974,37.175,0.525
2975,37.1875,0.52
2976,37.2,0.52
2977,37.2125,0.53
2978,37.225,0.55
2979,37.2375,0.55
2980,37.25,0.555
2981,37.2625,0.555
2982,37.275,0.535
2983,37.2875,0.505
2984,37.3,0.515
2985,37.3125,0.515
2986,37.325,0.535
2987,37.3375,0.545
2988,37.35,0.535
2989,37.3625,0.535
2990,37.375,0.535
2991,37.3875,0.555
2992,37.4,0.56
2993,37.4125,0.545
2994,37.425,0.535
2995,37.4375,0.53
2996,37.45,0.54
2997,37.4625,0.545
2998,37.475,0.55
2999,37.4875,0.54
3000,37.5,0.55
3001,37.5125,0.565
3002,37.525,0.57
3003,37.5375,0.595
3004,37.55,0.615
3005,37.5625,0.625
3006,37.575,0.615
3007,37.5875,0.61
3008,37.6,0.63
3009,37.6125,0.635
3010,37.625,0.62
3011,37.6375,0.62
3012,37.65,0.62
3013,37.6625,0.635
3014,37.675,0.65
3015,37.6875,0.675
3016,37.7,0.7
3017,37.7125,0.695
3018,37.725,0.675
3019,37.7375,0.67
3020,37.75,0.685
3021,37.7625,0.71
3022,37.775,0.72
3023,37.7875,0.7
3024,37.8,0.68
3025,37.8125,0.67
3026,37.825,0.68
3027,37.8375,0.705
3028,37.85,0.715
3029,37.8625,0.72
3030,37.875,0.705
3031,37.8875,0.705
3032,37.9,0.72
3033,37.9125,0.735
3034,37.925,0.77
3035,37.9375,0.75
3036,37.95,0.745
3037,37.9625,0.75
3038,37.975,0.755
3039,37.9875,0.755
3040,38.0,0.76
3041,38.0125,0.745
3042,38.025,0.72
3043,38.0375,0.7
3044,38.05,0.705
3045,38.0625,0.69
3046,38.075,0.69
3047,38.0875,0.665
3048,38.1,0.63
3049,38.1125,0.62
3050,38.125,0.59
3051,38.1375,0.595
3052,38.15,0.575
3053,38.1625,0.535
3054,38.175,0.52
3055,38.1875,0.495
3056,38.2,0.49
3057,38.2125,0.49
3058,38.225,0.47
3059,38.2375,0.45
3060,38.25,0.445
3061,38.2625,0.42
3062,38.275,0.425
3063,38.2875,0.44
3064,38.3,0.45
3065,38.3125,0.45
3066,38.325,0.425
3067,38.3375,0.42
3068,38.35,0.445
3069,38.3625,0.48
3070,38.375,0.495
3071,38.3875,0.485
3072,38.4,0.475
3073,38.4125,0.47
3074,38.425,0.485
3075,38.4375,0.515
3076,38.45,0.535
3077,38.4625,0.54
3078,38.475,0.53
3079,38.4875,0.52
3080,38.5,0.515
3081,38.5125,0.53
3082,38.525,0.535
3083,38.5375,0.525
3084,38.55,0.5
3085,38.5625,0.485
3086,38.575,0.465
3087,38.5875,0.465
3088,38.6,0.45
3089,38.6125,0.44
3090,38.625,0.395
3091,38.6375,0.37
3092,38.65,0.35
3093,38.6625,0.35
3094,38.675,0.36
3095,38.6875,0.345
3096,38.7,0.32
3097,38.7125,0.305
3098,38.725,0.3
3099,38.7375,0.31
3100,38.75,0.3
3101,38.7625,0.295
3102,38.775,0.28
3103,38.7875,0.27
3104,38.8,0.285
3105,38.8125,0.3
3106,38.825,0.3
3107,38.8375,0.29
3108,38.85,0.28
3109,38.8625,0.265
3110,38.875,0.275
3111,38.8875,0.28
3112,38.9,0.265
3113,38.9125,0.25
3114,38.925,0.195
3115,38.9375,0.16
3116,38.95,0.195
3117,38.9625,0.255
3118,38.975,0.375
3119,38.9875,0.525
3120,39.0,0.69
3121,39.0125,0.925
3122,39.025,1.2
3123,39.0375,1.49
3124,39.05,1.7
3125,39.0625,1.745
3126,39.075,1.555
3127,39.0875,1.215
3128,39.1,0.93
3129,39.1125,0.655
3130,39.125,0.415
3131,39.1375,0.3
3132,39.15,0.265
3133,39.1625,0.27
3134,39.175,0.275
3135,39.1875,0.305
3136,39.2,0.32
3137,39.2125,0.305
3138,39.225,0.27
3139,39.2375,0.235
3140,39.25,0.225
3141,39.2625,0.235
3142,39.275,0.24
3143,39.2875,0.24
3144,39.3,0.245
3145,39.3125,0.23
3146,39.325,0.23
3147,39.3375,0.235
3148,39.35,0.215
3149,39.3625,0.215
3150,39.375,0.185
3151,39.3875,0.17
3152,39.4,0.165
3153,39.4125,0.18
3154,39.425,0.2
3155,39.4375,0.185
3156,39.45,0.165
3157,39.4625,0.18
3158,39.475,0.185
3159,39.4875,0.22
3160,39.5,0.225
3161,39.5125,0.23
3162,39.525,0.2
3163,39.5375,0.18
3164,39.55,0.19
3165,39.5625,0.195
3166,39.575,0.2
3167,39.5875,0.21
3168,39.6,0.2
3169,39.6125,0.22
3170,39.625,0.225
3171,39.6375,0.24
3172,39.65,0.235
3173,39.6625,0.225
3174,39.675,0.225
3175,39.6875,0.21
3176,39.7,0.22
3177,39.7125,0.235
3178,39.725,0.26
3179,39.7375,0.265
3180,39.75,0.26
3181,39.7625,0.235
3182,39.775,0.255
3183,39.7875,0.275
3184,39.8,0.29
3185,39.8125,0.31
3186,39.825,0.335
3187,39.8375,0.33
3188,39.85,0.34
3189,39.8625,0.335
3190,39.875,0.36
3191,39.8875,0.35
3192,39.9,0.35
3193,39.9125,0.35
3194,39.925,0.36
3195,39.9375,0.37
3196,39.95,0.39
3197,39.9625,0.4
3198,39.975,0.405
3199,39.9875,0.41
3200,40.0,0.425
3201,40.0125,0.445
3202,40.025,0.445
3203,40.0375,0.405
3204,40.05,0.4
3205,40.0625,0.43
3206,40.075,0.44
3207,40.0875,0.43
3208,40.1,0.435
3209,40.1125,0.455
3210,40.125,0.465
3211,40.1375,0.455
3212,40.15,0.44
3213,40.1625,0.435
3214,40.175,0.43
3215,40.1875,0.405
3216,40.2,0.375
3217,40.2125,0.345
3218,40.225,0.32
3219,40.2375,0.33
3220,40.25,0.335
3221,40.2625,0.325
3222,40.275,0.29
3223,40.2875,0.265
3224,40.3,0.22
3225,40.3125,0.2
3226,40.325,0.175
3227,40.3375,0.115
3228,40.35,0.005
3229,40.3625,-0.07
3230,40.375,-0.01
3231,40.3875,0.11
3232,40.4,0.18
3233,40.4125,0.23
3234,40.425,0.24
3235,40.4375,0.245
3236,40.45,0.245
3237,40.4625,0.245
3238,40.475,0.235
3239,40.4875,0.23
3240,40.5,0.21
3241,40.5125,0.21
3242,40.525,0.235
3243,40.5375,0.26
3244,40.55,0.265
3245,40.5625,0.255
3246,40.575,0.25
3247,40.5875,0.26
3248,40.6,0.3
3249,40.6125,0.31
3250,40.625,0.295
3251,40.6375,0.28
3252,40.65,0.255
3253,40.6625,0.255
3254,40.675,0.25
3255,40.6875,0.26
3256,40.7,0.245
3257,40.7125,0.23
3258,40.725,0.2
3259,40.7375,0.19
3260,40.75,0.185
3261,40.7625,0.18
3262,40.775,0.15
3263,40.7875,0.1
3264,40.8,0.085
3265,40.8125,0.055
3266,40.825,0.06
3267,40.8375,0.07
3268,40.85,0.06
3269,40.8625,0.04
3270,40.875,0.02
3271,40.8875,0.0
3272,40.9,0.0
3273,40.9125,0.03
3274,40.925,0.03
3275,40.9375,0.02
3276,40.95,0.005
3277,40.9625,0.0
3278,40.975,0.005
3279,40.9875,0.005
3280,41.0,-0.005
3281,41.0125,-0.065
3282,41.025,-0.15
3283,41.0375,-0.17
3284,41.05,-0.145
3285,41.0625,-0.07
3286,41.075,0.06
3287,41.0875,0.195
3288,41.1,0.365
3289,41.1125,0.62
3290,41.125,0.895
3291,41.1375,1.19
3292,41.15,1.37
3293,41.1625,1.33
3294,41.175,1.065
3295,41.1875,0.745
3296,41.2,0.455
3297,41.2125,0.2
3298,41.225,0.035
3299,41.2375,-0.035
3300,41.25,-0.03
3301,41.2625,-0.055
3302,41.275,-0.045
3303,41.2875,-0.015
3304,41.3,-0.01
3305,41.3125,-0.005
3306,41.325,-0.05
3307,41.3375,-0.07
3308,41.35,-0.075
3309,41.3625,-0.06
3310,41.375,-0.065
3311,41.3875,-0.085
3312,41.4,-0.125
3313,41.4125,-0.13
3314,41.425,-0.11
3315,41.4375,-0.085
3316,41.45,-0.08
3317,41.4625,-0.07
3318,41.475,-0.1
3319,41.4875,-0.09
3320,41.5,-0.09
3321,41.5125,-0.065
3322,41.525,-0.08
3323,41.5375,-0.075
3324,41.55,-0.115
3325,41.5625,-0.115
3326,41.575,-0.11
3327,41.5875,-0.095
3328,41.6,-0.085
3329,41.6125,-0.085
3330,41.625,-0.09
3331,41.6375,-0.095
3332,41.65,-0.09
3333,41.6625,-0.075
3334,41.675,-0.055
3335,41.6875,-0.06
3336,41.7,-0.065
3337,41.7125,-0.08
3338,41.725,-0.07
3339,41.7375,-0.05
3340,41.75,-0.035
3341,41.7625,-0.04
3342,41.775,-0.045
3343,41.7875,-0.035
3344,41.8,-0.015
3345,41.8125,-0.005
3346,41.825,0.01
3347,41.8375,0.015
3348,41.85,0.0
3349,41.8625,-0.005
3350,41.875,0.005
3351,41.8875,0.005
3352,41.9,0.015
3353,41.9125,0.025
3354,41.925,0.015
3355,41.9375,0.0
3356,41.95,0.02
3357,41.9625,0.055
3358,41.975,0.045
3359,41.9875,0.045
3360,42.0,0.03
3361,42.0125,0.035
3362,42.025,0.05
3363,42.0375,0.095
3364,42.05,0.105
3365,42.0625,0.105
3366,42.075,0.105
3367,42.0875,0.105
3368,42.1,0.11
3369,42.1125,0.125
3370,42.125,0.16
3371,42.1375,0.16
3372,42.15,0.13
3373,42.1625,0.13
3374,42.175,0.135
3375,42.1875,0.155
3376,42.2,0.155
3377,42.2125,0.165
3378,42.225,0.16
3379,42.2375,0.16
3380,42.25,0.145
3381,42.2625,0.135
3382,42.275,0.135
3383,42.2875,0.105
3384,42.3,0.06
3385,42.3125,0.02
3386,42.325,0.0
3387,42.3375,0.015
3388,42.35,0.03
3389,42.3625,0.015
3390,42.375,-0.015
3391,42.3875,-0.03
3392,42.4,-0.025
3393,42.4125,-0.02
3394,42.425,-0.015
3395,42.4375,-0.015
3396,42.45,-0.04
3397,42.4625,-0.04
3398,42.475,-0.045
3399,42.4875,-0.025
3400,42.5,-0.02
3401,42.5125,-0.015
3402,42.525,-0.025
3403,42.5375,-0.005
3404,42.55,0.02
3405,42.5625,0.035
3406,42.575,0.05
3407,42.5875,0.04
3408,42.6,0.035
3409,42.6125,0.015
3410,42.625,0.05
3411,42.6375,0.085
3412,42.65,0.105
3413,42.6625,0.095
3414,42.675,0.05
3415,42.6875,0.06
3416,42.7,0.065
3417,42.7125,0.065
3418,42.725,0.065
3419,42.7375,0.055
3420,42.75,0.045
3421,42.7625,0.015
3422,42.775,-0.01
3423,42.7875,-0.035
3424,42.8,-0.04
3425,42.8125,-0.055
3426,42.825,-0.08
3427,42.8375,-0.105
3428,42.85,-0.11
3429,42.8625,-0.1
3430,42.875,-0.12
3431,42.8875,-0.15
3432,42.9,-0.195
3433,42.9125,-0.215
3434,42.925,-0.195
3435,42.9375,-0.185
3436,42.95,-0.175
3437,42.9625,-0.17
3438,42.975,-0.175
3439,42.9875,-0.175
3440,43.0,-0.18
3441,43.0125,-0.165
3442,43.025,-0.18
3443,43.0375,-0.2
3444,43.05,-0.275
3445,43.0625,-0.335
3446,43.075,-0.355
3447,43.0875,-0.335
3448,43.1,-0.3
3449,43.1125,-0.245
3450,43.125,-0.12
3451,43.1375,0.075
3452,43.15,0.34
3453,43.1625,0.655
3454,43.175,0.935
3455,43.1875,1.13
3456,43.2,1.2
3457,43.2125,1.04
3458,43.225,0.755
3459,43.2375,0.445
3460,43.25,0.155
3461,43.2625,-0.07
3462,43.275,-0.175
3463,43.2875,-0.19
3464,43.3,-0.195
3465,43.3125,-0.18
3466,43.325,-0.17
3467,43.3375,-0.165
3468,43.35,-0.16
3469,43.3625,-0.175
3470,43.375,-0.17
3471,43.3875,-0.2
3472,43.4,-0.205
3473,43.4125,-0.245
3474,43.425,-0.28
3475,43.4375,-0.325
3476,43.45,-0.335
3477,43.4625,-0.31
3478,43.475,-0.29
3479,43.4875,-0.28
3480,43.5,-0.275
3481,43.5125,-0.305
3482,43.525,-0.315
3483,43.5375,-0.3
3484,43.55,-0.275
3485,43.5625,-0.24
3486,43.575,-0.26
3487,43.5875,-0.295
3488,43.6,-0.3
3489,43.6125,-0.26
3490,43.625,-0.23
3491,43.6375,-0.235
3492,43.65,-0.275
3493,43.6625,-0.31
3494,43.675,-0.355
3495,43.6875,-0.365
3496,43.7,-0.355
3497,43.7125,-0.34
3498,43.725,-0.335
3499,43.7375,-0.33
3500,43.75,-0.315
3501,43.7625,-0.305
3502,43.775,-0.32
3503,43.7875,-0.35
3504,43.8,-0.34
3505,43.8125,-0.335
3506,43.825,-0.35
3507,43.8375,-0.35
3508,43.85,-0.33
3509,43.8625,-0.28
3510,43.875,-0.25
3511,43.8875,-0.26
3512,43.9,-0.27
3513,43.9125,-0.25
3514,43.925,-0.24
3515,43.9375,-0.25
3516,43.95,-0.26
3517,43.9625,-0.26
3518,43.975,-0.24
3519,43.9875,-0.225
3520,44.0,-0.235
3521,44.0125,-0.26
3522,44.025,-0.255
3523,44.0375,-0.225
3524,44.05,-0.19
3525,44.0625,-0.15
3526,44.075,-0.12
3527,44.0875,-0.1
3528,44.1,-0.105
3529,44.1125,-0.11
3530,44.125,-0.125
3531,44.1375,-0.11
3532,44.15,-0.105
3533,44.1625,-0.115
3534,44.175,-0.14
3535,44.1875,-0.155
3536,44.2,-0.145
3537,44.2125,-0.125
3538,44.225,-0.12
3539,44.2375,-0.13
3540,44.25,-0.14
3541,44.2625,-0.155
3542,44.275,-0.165
3543,44.2875,-0.16
3544,44.3,-0.16
3545,44.3125,-0.155
3546,44.325,-0.17
3547,44.3375,-0.195
3548,44.35,-0.205
3549,44.3625,-0.21
3550,44.375,-0.24
3551,44.3875,-0.26
3552,44.4,-0.265
3553,44.4125,-0.28
3554,44.425,-0.295
3555,44.4375,-0.32
3556,44.45,-0.31
3557,44.4625,-0.325
3558,44.475,-0.375
3559,44.4875,-0.39
3560,44.5,-0.415
3561,44.5125,-0.4
3562,44.525,-0.38
3563,44.5375,-0.4
3564,44.55,-0.42
3565,44.5625,-0.42
3566,44.575,-0.395
3567,44.5875,-0.355
3568,44.6,-0.355
3569,44.6125,-0.365
3570,44.625,-0.365
3571,44.6375,-0.38
3572,44.65,-0.375
3573,44.6625,-0.345
3574,44.675,-0.315
3575,44.6875,-0.285
3576,44.7,-0.285
3577,44.7125,-0.315
3578,44.725,-0.315
3579,44.7375,-0.285
3580,44.75,-0.285
3581,44.7625,-0.33
3582,44.775,-0.4
3583,44.7875,-0.44
3584,44.8,-0.43
3585,44.8125,-0.415
3586,44.825,-0.435
3587,44.8375,-0.485
3588,44.85,-0.53
3589,44.8625,-0.54
3590,44.875,-0.565
3591,44.8875,-0.555
3592,44.9,-0.545
3593,44.9125,-0.575
3594,44.925,-0.605
3595,44.9375,-0.61
3596,44.95,-0.57
3597,44.9625,-0.57
3598,44.975,-0.59
3599,44.9875,-0.605
3600,45.0,-0.61
3601,45.0125,-0.62
3602,45.025,-0.64
3603,45.0375,-0.71
3604,45.05,-0.77
3605,45.0625,-0.82
3606,45.075,-0.805
3607,45.0875,-0.69
3608,45.1,-0.49
3609,45.1125,-0.25
3610,45.125,-0.01
3611,45.1375,0.24
3612,45.15,0.49
3613,45.1625,0.715
3614,45.175,0.81
3615,45.1875,0.685
3616,45.2,0.36
3617,45.2125,0.005
3618,45.225,-0.305
3619,45.2375,-0.525
3620,45.25,-0.595
3621,45.2625,-0.585
3622,45.275,-0.58
3623,45.2875,-0.6
3624,45.3,-0.64
3625,45.3125,-0.655
3626,45.325,-0.655
3627,45.3375,-0.635
3628,45.35,-0.625
3629,45.3625,-0.63
3630,45.375,-0.67
3631,45.3875,-0.695
3632,45.4,-0.675
3633,45.4125,-0.68
3634,45.425,-0.685
3635,45.4375,-0.695
3636,45.45,-0.7
3637,45.4625,-0.72
3638,45.475,-0.725
3639,45.4875,-0.725
3640,45.5,-0.71
3641,45.5125,-0.685
3642,45.525,-0.7
3643,45.5375,-0.725
3644,45.55,-0.735
3645,45.5625,-0.71
3646,45.575,-0.685
3647,45.5875,-0.675
3648,45.6,-0.69
3649,45.6125,-0.695
3650,45.625,-0.69
3651,45.6375,-0.665
3652,45.65,-0.65
3653,45.6625,-0.685
3654,45.675,-0.705
3655,45.6875,-0.7
3656,45.7,-0.65
3657,45.7125,-0.62
3658,45.725,-0.62
3659,45.7375,-0.655
3660,45.75,-0.675
3661,45.7625,-0.665
3662,45.775,-0.64
3663,45.7875,-0.6
3664,45.8,-0.565
3665,45.8125,-0.57
3666,45.825,-0.585
3667,45.8375,-0.58
3668,45.85,-0.575
3669,45.8625,-0.545
3670,45.875,-0.535
3671,45.8875,-0.545
3672,45.9,-0.555
3673,45.9125,-0.555
3674,45.925,-0.55
3675,45.9375,-0.52
3676,45.95,-0.48
3677,45.9625,-0.47
3678,45.975,-0.475
3679,45.9875,-0.5
3680,46.0,-0.49
3681,46.0125,-0.47
3682,46.025,-0.46
3683,46.0375,-0.45
3684,46.05,-0.45
3685,46.0625,-0.48
3686,46.075,-0.5
3687,46.0875,-0.475
3688,46.1,-0.43
3689,46.1125,-0.385
3690,46.125,-0.37
3691,46.1375,-0.435
3692,46.15,-0.44
3693,46.1625,-0.405
3694,46.175,-0.355
3695,46.1875,-0.335
3696,46.2,-0.365
3697,46.2125,-0.375
3698,46.225,-0.355
3699,46.2375,-0.345
3700,46.25,-0.345
3701,46.2625,-0.37
3702,46.275,-0.415
3703,46.2875,-0.435
3704,46.3,-0.435
3705,46.3125,-0.425
3706,46.325,-0.415
3707,46.3375,-0.395
3708,46.35,-0.45
3709,46.3625,-0.52
3710,46.375,-0.585
3711,46.3875,-0.575
3712,46.4,-0.55
3713,46.4125,-0.55
3714,46.425,-0.575
3715,46.4375,-0.595
3716,46.45,-0.58
3717,46.4625,-0.565
3718,46.475,-0.57
3719,46.4875,-0.585
3720,46.5,-0.61
3721,46.5125,-0.61
3722,46.525,-0.58
3723,46.5375,-0.55
3724,46.55,-0.53
3725,46.5625,-0.55
3726,46.575,-0.555
3727,46.5875,-0.545
3728,46.6,-0.52
3729,46.6125,-0.48
3730,46.625,-0.475
3731,46.6375,-0.465
3732,46.65,-0.48
3733,46.6625,-0.48
3734,46.675,-0.465
3735,46.6875,-0.455
3736,46.7,-0.47
3737,46.7125,-0.495
3738,46.725,-0.53
3739,46.7375,-0.555
3740,46.75,-0.55
3741,46.7625,-0.525
3742,46.775,-0.525
3743,46.7875,-0.54
3744,46.8,-0.595
3745,46.8125,-0.635
3746,46.825,-0.645
3747,46.8375,-0.645
3748,46.85,-0.64
3749,46.8625,-0.655
3750,46.875,-0.68
3751,46.8875,-0.71
3752,46.9,-0.685
3753,46.9125,-0.675
3754,46.925,-0.68
3755,46.9375,-0.715
3756,46.95,-0.755
3757,46.9625,-0.755
3758,46.975,-0.715
3759,46.9875,-0.68
3760,47.0,-0.685
3761,47.0125,-0.685
3762,47.025,-0.69
3763,47.0375,-0.69
3764,47.05,-0.735
3765,47.0625,-0.78
3766,47.075,-0.845
3767,47.0875,-0.825
3768,47.1,-0.79
3769,47.1125,-0.77
3770,47.125,-0.71
3771,47.1375,-0.595
3772,47.15,-0.37
3773,47.1625,-0.105
3774,47.175,0.175
3775,47.1875,0.46
3776,47.2,0.665
3777,47.2125,0.64
3778,47.225,0.365
3779,47.2375,0.0
3780,47.25,-0.345
3781,47.2625,-0.6
3782,47.275,-0.76
3783,47.2875,-0.8
3784,47.3,-0.78
3785,47.3125,-0.735
3786,47.325,-0.72
3787,47.3375,-0.72
3788,47.35,-0.715
3789,47.3625,-0.7
3790,47.375,-0.705
3791,47.3875,-0.72
3792,47.4,-0.74
3793,47.4125,-0.735
3794,47.425,-0.75
3795,47.4375,-0.77
3796,47.45,-0.76
3797,47.4625,-0.745
3798,47.475,-0.73
3799,47.4875,-0.725
3800,47.5,-0.735
3801,47.5125,-0.705
3802,47.525,-0.705
3803,47.5375,-0.71
3804,47.55,-0.725
3805,47.5625,-0.75
3806,47.575,-0.75
3807,47.5875,-0.725
3808,47.6,-0.71
3809,47.6125,-0.715
3810,47.625,-0.745
3811,47.6375,-0.74
3812,47.65,-0.72
3813,47.6625,-0.68
3814,47.675,-0.66
3815,47.6875,-0.68
3816,47.7,-0.72
3817,47.7125,-0.745
3818,47.725,-0.72
3819,47.7375,-0.665
3820,47.75,-0.665
3821,47.7625,-0.685
3822,47.775,-0.695
3823,47.7875,-0.69
3824,47.8,-0.67
3825,47.8125,-0.635
3826,47.825,-0.635
3827,47.8375,-0.625
3828,47.85,-0.64
3829,47.8625,-0.635
3830,47.875,-0.62
3831,47.8875,-0.59
3832,47.9,-0.565
3833,47.9125,-0.535
3834,47.925,-0.54
3835,47.9375,-0.575
3836,47.95,-0.595
3837,47.9625,-0.575
3838,47.975,-0.55
3839,47.9875,-0.545
3840,48.0,-0.57
3841,48.0125,-0.57
3842,48.025,-0.55
3843,48.0375,-0.505
3844,48.05,-0.495
3845,48.0625,-0.505
3846,48.075,-0.505
3847,48.0875,-0.51
3848,48.1,-0.505
3849,48.1125,-0.465
3850,48.125,-0.425
3851,48.1375,-0.405
3852,48.15,-0.435
3853,48.1625,-0.47
3854,48.175,-0.475
3855,48.1875,-0.465
3856,48.2,-0.44
3857,48.2125,-0.415
3858,48.225,-0.395
3859,48.2375,-0.41
3860,48.25,-0.4
3861,48.2625,-0.415
3862,48.275,-0.39
3863,48.2875,-0.395
3864,48.3,-0.395
3865,48.3125,-0.395
3866,48.325,-0.395
3867,48.3375,-0.385
3868,48.35,-0.425
3869,48.3625,-0.425
3870,48.375,-0.44
3871,48.3875,-0.44
3872,48.4,-0.43
3873,48.4125,-0.42
3874,48.425,-0.455
3875,48.4375,-0.475
3876,48.45,-0.495
3877,48.4625,-0.505
3878,48.475,-0.525
3879,48.4875,-0.53
3880,48.5,-0.515
3881,48.5125,-0.535
3882,48.525,-0.585
3883,48.5375,-0.62
3884,48.55,-0.61
3885,48.5625,-0.585
3886,48.575,-0.585
3887,48.5875,-0.595
3888,48.6,-0.6
3889,48.6125,-0.575
3890,48.625,-0.555
3891,48.6375,-0.51
3892,48.65,-0.465
3893,48.6625,-0.44
3894,48.675,-0.46
3895,48.6875,-0.475
3896,48.7,-0.515
3897,48.7125,-0.53
3898,48.725,-0.535
3899,48.7375,-0.485
3900,48.75,-0.46
3901,48.7625,-0.425
3902,48.775,-0.435
3903,48.7875,-0.445
3904,48.8,-0.45
3905,48.8125,-0.475
3906,48.825,-0.485
3907,48.8375,-0.48
3908,48.85,-0.465
3909,48.8625,-0.445
3910,48.875,-0.45
3911,48.8875,-0.48
3912,48.9,-0.52
3913,48.9125,-0.545
3914,48.925,-0.54
3915,48.9375,-0.54
3916,48.95,-0.55
3917,48.9625,-0.575
3918,48.975,-0.615
3919,48.9875,-0.64
3920,49.0,-0.645
3921,49.0125,-0.62
3922,49.025,-0.59
3923,49.0375,-0.59
3924,49.05,-0.63
3925,49.0625,-0.66
3926,49.075,-0.635
3927,49.0875,-0.625
3928,49.1,-0.625
3929,49.1125,-0.63
3930,49.125,-0.645
3931,49.1375,-0.655
3932,49.15,-0.645
3933,49.1625,-0.63
3934,49.175,-0.615
3935,49.1875,-0.605
3936,49.2,-0.645
3937,49.2125,-0.71
3938,49.225,-0.75
3939,49.2375,-0.735
3940,49.25,-0.69
3941,49.2625,-0.605
3942,49.275,-0.5
3943,49.2875,-0.335
3944,49.3,-0.13
3945,49.3125,0.095
3946,49.325,0.31
3947,49.3375,0.53
3948,49.35,0.665
3949,49.3625,0.63
3950,49.375,0.44
3951,49.3875,0.15
3952,49.4,-0.17
3953,49.4125,-0.46
3954,49.425,-0.71
3955,49.4375,-0.805
3956,49.45,-0.835
3957,49.4625,-0.805
3958,49.475,-0.77
3959,49.4875,-0.735
3960,49.5,-0.72
3961,49.5125,-0.74
3962,49.525,-0.735
3963,49.5375,-0.725
3964,49.55,-0.725
3965,49.5625,-0.745
3966,49.575,-0.775
3967,49.5875,-0.78
3968,49.6,-0.79
3969,49.6125,-0.795
3970,49.625,-0.79
3971,49.6375,-0.79
3972,49.65,-0.79
3973,49.6625,-0.8
3974,49.675,-0.76
3975,49.6875,-0.71
3976,49.7,-0.695
3977,49.7125,-0.695
3978,49.725,-0.72
3979,49.7375,-0.77
3980,49.75,-0.785
3981,49.7625,-0.75
3982,49.775,-0.71
3983,49.7875,-0.675
3984,49.8,-0.685
3985,49.8125,-0.69
3986,49.825,-0.69
3987,49.8375,-0.685
3988,49.85,-0.705
3989,49.8625,-0.7
3990,49.875,-0.68
3991,49.8875,-0.695
3992,49.9,-0.69
3993,49.9125,-0.67
3994,49.925,-0.645
3995,49.9375,-0.66
3996,49.95,-0.675
3997,49.9625,-0.67
3998,49.975,-0.65
3999,49.9875,-0.615
4000,50.0,-0.585
4001,50.0125,-0.565
4002,50.025,-0.56
4003,50.0375,-0.56
4004,50.05,-0.555
4005,50.0625,-0.545
4006,50.075,-0.555
4007,50.0875,-0.555
4008,50.1,-0.525
4009,50.1125,-0.525
4010,50.125,-0.515
4011,50.1375,-0.515
4012,50.15,-0.515
4013,50.1625,-0.52
4014,50.175,-0.53
4015,50.1875,-0.53
4016,50.2,-0.495
4017,50.2125,-0.47
4018,50.225,-0.46
4019,50.2375,-0.445
4020,50.25,-0.46
4021,50.2625,-0.475
4022,50.275,-0.475
4023,50.2875,-0.45
4024,50.3,-0.435
4025,50.3125,-0.425
4026,50.325,-0.43
4027,50.3375,-0.45
4028,50.35,-0.445
4029,50.3625,-0.435
4030,50.375,-0.44
4031,50.3875,-0.445
4032,50.4,-0.44
4033,50.4125,-0.42
4034,50.425,-0.405
4035,50.4375,-0.375
4036,50.45,-0.37
4037,50.4625,-0.375
4038,50.475,-0.39
4039,50.4875,-0.4
4040,50.5,-0.415
4041,50.5125,-0.425
4042,50.525,-0.415
4043,50.5375,-0.4
4044,50.55,-0.43
4045,50.5625,-0.42
4046,50.575,-0.41
4047,50.5875,-0.405
4048,50.6,-0.41
4049,50.6125,-0.455
4050,50.625,-0.51
4051,50.6375,-0.555
4052,50.65,-0.535
4053,50.6625,-0.52
4054,50.675,-0.52
4055,50.6875,-0.54
4056,50.7,-0.56
4057,50.7125,-0.575
4058,50.725,-0.58
4059,50.7375,-0.59
4060,50.75,-0.59
4061,50.7625,-0.585
4062,50.775,-0.605
4063,50.7875,-0.625
4064,50.8,-0.63
4065,50.8125,-0.615
4066,50.825,-0.62
4067,50.8375,-0.61
4068,50.85,-0.61
4069,50.8625,-0.605
4070,50.875,-0.615
4071,50.8875,-0.585
4072,50.9,-0.565
4073,50.9125,-0.575
4074,50.925,-0.585
4075,50.9375,-0.59
4076,50.95,-0.575
4077,50.9625,-0.535
4078,50.975,-0.495
4079,50.9875,-0.485
4080,51.0,-0.465
4081,51.0125,-0.5
4082,51.025,-0.51
4083,51.0375,-0.51
4084,51.05,-0.48
4085,51.0625,-0.49
4086,51.075,-0.515
4087,51.0875,-0.56
4088,51.1,-0.57
4089,51.1125,-0.555
4090,51.125,-0.545
4091,51.1375,-0.545
4092,51.15,-0.57
4093,51.1625,-0.61
4094,51.175,-0.6
4095,51.1875,-0.595
4096,51.2,-0.6
4097,51.2125,-0.625
4098,51.225,-0.66
4099,51.2375,-0.7
4100,51.25,-0.69
4101,51.2625,-0.675
4102,51.275,-0.65
4103,51.2875,-0.655
4104,51.3,-0.675
4105,51.3125,-0.725
4106,51.325,-0.74
4107,51.3375,-0.715
4108,51.35,-0.7
4109,51.3625,-0.7
4110,51.375,-0.71
4111,51.3875,-0.72
4112,51.4,-0.71
4113,51.4125,-0.705
4114,51.425,-0.71
4115,51.4375,-0.715
4116,51.45,-0.75
4117,51.4625,-0.79
4118,51.475,-0.825
4119,51.4875,-0.825
4120,51.5,-0.745
4121,51.5125,-0.655
4122,51.525,-0.545
4123,51.5375,-0.405
4124,51.55,-0.225
4125,51.5625,0.05
4126,51.575,0.35
4127,51.5875,0.595
4128,51.6,0.765
4129,51.6125,0.855
4130,51.625,0.79
4131,51.6375,0.59
4132,51.65,0.315
4133,51.6625,0.025
4134,51.675,-0.295
4135,51.6875,-0.58
4136,51.7,-0.72
4137,51.7125,-0.76
4138,51.725,-0.73
4139,51.7375,-0.72
4140,51.75,-0.705
4141,51.7625,-0.715
4142,51.775,-0.7
4143,51.7875,-0.69
4144,51.8,-0.7
4145,51.8125,-0.72
4146,51.825,-0.73
4147,51.8375,-0.72
4148,51.85,-0.72
4149,51.8625,-0.71
4150,51.875,-0.71
4151,51.8875,-0.715
4152,51.9,-0.725
4153,51.9125,-0.735
4154,51.925,-0.74
4155,51.9375,-0.73
4156,51.95,-0.73
4157,51.9625,-0.73
4158,51.975,-0.72
4159,51.9875,-0.715
4160,52.0,-0.735
4161,52.0125,-0.735
4162,52.025,-0.72
4163,52.0375,-0.71
4164,52.05,-0.715
4165,52.0625,-0.745
4166,52.075,-0.74
4167,52.0875,-0.735
4168,52.1,-0.715
4169,52.1125,-0.71
4170,52.125,-0.725
4171,52.1375,-0.71
4172,52.15,-0.705
4173,52.1625,-0.725
4174,52.175,-0.735
4175,52.1875,-0.725
4176,52.2,-0.715
4177,52.2125,-0.705
4178,52.225,-0.695
4179,52.2375,-0.665
4180,52.25,-0.645
4181,52.2625,-0.64
4182,52.275,-0.66
4183,52.2875,-0.66
4184,52.3,-0.655
4185,52.3125,-0.625
4186,52.325,-0.625
4187,52.3375,-0.61
4188,52.35,-0.635
4189,52.3625,-0.64
4190,52.375,-0.64
4191,52.3875,-0.605
4192,52.4,-0.59
4193,52.4125,-0.575
4194,52.425,-0.575
4195,52.4375,-0.565
4196,52.45,-0.55
4197,52.4625,-0.535
4198,52.475,-0.525
4199,52.4875,-0.535
4200,52.5,-0.57
4201,52.5125,-0.575
4202,52.525,-0.575
4203,52.5375,-0.565
4204,52.55,-0.535
4205,52.5625,-0.52
4206,52.575,-0.525
4207,52.5875,-0.53
4208,52.6,-0.535
4209,52.6125,-0.51
4210,52.625,-0.505
4211,52.6375,-0.49
4212,52.65,-0.495
4213,52.6625,-0.495
4214,52.675,-0.485
4215,52.6875,-0.475
4216,52.7,-0.455
4217,52.7125,-0.46
4218,52.725,-0.47
4219,52.7375,-0.48
4220,52.75,-0.485
4221,52.7625,-0.455
4222,52.775,-0.445
4223,52.7875,-0.445
4224,52.8,-0.475
4225,52.8125,-0.49
4226,52.825,-0.49
4227,52.8375,-0.46
4228,52.85,-0.445
4229,52.8625,-0.46
4230,52.875,-0.485
4231,52.8875,-0.495
4232,52.9,-0.51
4233,52.9125,-0.5
4234,52.925,-0.52
4235,52.9375,-0.545
4236,52.95,-0.59
4237,52.9625,-0.62
4238,52.975,-0.62
4239,52.9875,-0.59
4240,53.0,-0.59
4241,53.0125,-0.605
4242,53.025,-0.63
4243,53.0375,-0.645
4244,53.05,-0.63
4245,53.0625,-0.615
4246,53.075,-0.615
4247,53.0875,-0.61
4248,53.1,-0.63
4249,53.1125,-0.63
4250,53.125,-0.62
4251,53.1375,-0.615
4252,53.15,-0.595
4253,53.1625,-0.61
4254,53.175,-0.605
4255,53.1875,-0.605
4256,53.2,-0.595
4257,53.2125,-0.57
4258,53.225,-0.57
4259,53.2375,-0.56
4260,53.25,-0.555
4261,53.2625,-0.525
4262,53.275,-0.495
4263,53.2875,-0.485
4264,53.3,-0.495
4265,53.3125,-0.515
4266,53.325,-0.53
4267,53.3375,-0.555
4268,53.35,-0.53
4269,53.3625,-0.515
4270,53.375,-0.52
4271,53.3875,-0.54
4272,53.4,-0.58
4273,53.4125,-0.61
4274,53.425,-0.615
4275,53.4375,-0.6
4276,53.45,-0.595
4277,53.4625,-0.6
4278,53.475,-0.64
4279,53.4875,-0.655
4280,53.5,-0.645
4281,53.5125,-0.645
4282,53.525,-0.69
4283,53.5375,-0.74
4284,53.55,-0.76
4285,53.5625,-0.765
4286,53.575,-0.75
4287,53.5875,-0.745
4288,53.6,-0.73
4289,53.6125,-0.73
4290,53.625,-0.755
4291,53.6375,-0.78
4292,53.65,-0.79
4293,53.6625,-0.76
4294,53.675,-0.745
4295,53.6875,-0.74
4296,53.7,-0.76
4297,53.7125,-0.79
4298,53.725,-0.815
4299,53.7375,-0.85
4300,53.75,-0.86
4301,53.7625,-0.865
4302,53.775,-0.85
4303,53.7875,-0.775
4304,53.8,-0.635
4305,53.8125,-0.41
4306,53.825,-0.145
4307,53.8375,0.155
4308,53.85,0.42
4309,53.8625,0.65
4310,53.875,0.79
4311,53.8875,0.74
4312,53.9,0.49
4313,53.9125,0.155
4314,53.925,-0.205
4315,53.9375,-0.52
4316,53.95,-0.74
4317,53.9625,-0.82
4318,53.975,-0.795
4319,53.9875,-0.77
4320,54.0,-0.775
4321,54.0125,-0.79
4322,54.025,-0.785
4323,54.0375,-0.76
4324,54.05,-0.74
4325,54.0625,-0.755
4326,54.075,-0.78
4327,54.0875,-0.8
4328,54.1,-0.81
4329,54.1125,-0.805
4330,54.125,-0.8
4331,54.1375,-0.81
4332,54.15,-0.82
4333,54.1625,-0.805
4334,54.175,-0.785
4335,54.1875,-0.79
4336,54.2,-0.81
4337,54.2125,-0.835
4338,54.225,-0.84
4339,54.2375,-0.83
4340,54.25,-0.825
4341,54.2625,-0.79
4342,54.275,-0.79
4343,54.2875,-0.775
4344,54.3,-0.795
4345,54.3125,-0.82
4346,54.325,-0.81
4347,54.3375,-0.795
4348,54.35,-0.79
4349,54.3625,-0.805
4350,54.375,-0.805
4351,54.3875,-0.83
4352,54.4,-0.82
4353,54.4125,-0.8
4354,54.425,-0.785
4355,54.4375,-0.77
4356,54.45,-0.77
4357,54.4625,-0.78
4358,54.475,-0.765
4359,54.4875,-0.76
4360,54.5,-0.745
4361,54.5125,-0.75
4362,54.525,-0.745
4363,54.5375,-0.765
4364,54.55,-0.77
4365,54.5625,-0.745
4366,54.575,-0.725
4367,54.5875,-0.705
4368,54.6,-0.71
4369,54.6125,-0.715
4370,54.625,-0.705
4371,54.6375,-0.68
4372,54.65,-0.67
4373,54.6625,-0.665
4374,54.675,-0.665
4375,54.6875,-0.655
4376,54.7,-0.655
4377,54.7125,-0.64
4378,54.725,-0.65
4379,54.7375,-0.625
4380,54.75,-0.63
4381,54.7625,-0.635
4382,54.775,-0.61
4383,54.7875,-0.6
4384,54.8,-0.595
4385,54.8125,-0.605
4386,54.825,-0.62
4387,54.8375,-0.63
4388,54.85,-0.625
4389,54.8625,-0.595
4390,54.875,-0.56
4391,54.8875,-0.545
4392,54.9,-0.555
4393,54.9125,-0.58
4394,54.925,-0.58
4395,54.9375,-0.545
4396,54.95,-0.54
4397,54.9625,-0.54
4398,54.975,-0.545
4399,54.9875,-0.545
4400,55.0,-0.54
4401,55.0125,-0.545
4402,55.025,-0.53
4403,55.0375,-0.53
4404,55.05,-0.555
4405,55.0625,-0.575
4406,55.075,-0.585
4407,55.0875,-0.58
4408,55.1,-0.585
4409,55.1125,-0.6
4410,55.125,-0.64
4411,55.1375,-0.68
4412,55.15,-0.705
4413,55.1625,-0.705
4414,55.175,-0.695
4415,55.1875,-0.675
4416,55.2,-0.69
4417,55.2125,-0.7
4418,55.225,-0.72
4419,55.2375,-0.705
4420,55.25,-0.7
4421,55.2625,-0.7
4422,55.275,-0.715
4423,55.2875,-0.74
4424,55.3,-0.72
4425,55.3125,-0.71
4426,55.325,-0.695
4427,55.3375,-0.69
4428,55.35,-0.71
4429,55.3625,-0.71
4430,55.375,-0.695
4431,55.3875,-0.67
4432,55.4,-0.64
4433,55.4125,-0.605
4434,55.425,-0.625
4435,55.4375,-0.645
4436,55.45,-0.645
4437,55.4625,-0.625
4438,55.475,-0.62
4439,55.4875,-0.615
4440,55.5,-0.605
4441,55.5125,-0.61
4442,55.525,-0.605
4443,55.5375,-0.625
4444,55.55,-0.65
4445,55.5625,-0.675
4446,55.575,-0.69
4447,55.5875,-0.7
4448,55.6,-0.7
4449,55.6125,-0.7
4450,55.625,-0.71
4451,55.6375,-0.73
4452,55.65,-0.775
4453,55.6625,-0.8
4454,55.675,-0.835
4455,55.6875,-0.835
4456,55.7,-0.82
4457,55.7125,-0.805
4458,55.725,-0.81
4459,55.7375,-0.83
4460,55.75,-0.85
4461,55.7625,-0.84
4462,55.775,-0.83
4463,55.7875,-0.835
4464,55.8,-0.84
4465,55.8125,-0.84
4466,55.825,-0.835
4467,55.8375,-0.835
4468,55.85,-0.845
4469,55.8625,-0.855
4470,55.875,-0.905
4471,55.8875,-0.955
4472,55.9,-0.975
4473,55.9125,-0.935
4474,55.925,-0.825
4475,55.9375,-0.675
4476,55.95,-0.495
4477,55.9625,-0.265
4478,55.975,0.015
4479,55.9875,0.305
4480,56.0,0.565
4481,56.0125,0.735
4482,56.025,0.76
4483,56.0375,0.585
4484,56.05,0.285
4485,56.0625,-0.02
4486,56.075,-0.335
4487,56.0875,-0.585
4488,56.1,-0.765
4489,56.1125,-0.84
4490,56.125,-0.835
4491,56.1375,-0.845
4492,56.15,-0.855
4493,56.1625,-0.865
4494,56.175,-0.86
4495,56.1875,-0.86
4496,56.2,-0.875
4497,56.2125,-0.875
4498,56.225,-0.87
4499,56.2375,-0.88
4500,56.25,-0.9
4501,56.2625,-0.92
4502,56.275,-0.93
4503,56.2875,-0.91
4504,56.3,-0.895
4505,56.3125,-0.915
4506,56.325,-0.955
4507,56.3375,-0.955
4508,56.35,-0.95
4509,56.3625,-0.935
4510,56.375,-0.91
4511,56.3875,-0.89
4512,56.4,-0.915
4513,56.4125,-0.925
4514,56.425,-0.95
4515,56.4375,-0.945
4516,56.45,-0.935
4517,56.4625,-0.92
4518,56.475,-0.925
4519,56.4875,-0.94
4520,56.5,-0.935
4521,56.5125,-0.905
4522,56.525,-0.905
4523,56.5375,-0.905
4524,56.55,-0.935
4525,56.5625,-0.95
4526,56.575,-0.935
4527,56.5875,-0.885
4528,56.6,-0.87
4529,56.6125,-0.865
4530,56.625,-0.885
4531,56.6375,-0.885
4532,56.65,-0.88
4533,56.6625,-0.86
4534,56.675,-0.86
4535,56.6875,-0.865
4536,56.7,-0.89
4537,56.7125,-0.885
4538,56.725,-0.855
4539,56.7375,-0.85
4540,56.75,-0.845
4541,56.7625,-0.835
4542,56.775,-0.825
4543,56.7875,-0.825
4544,56.8,-0.8
4545,56.8125,-0.78
4546,56.825,-0.78
4547,56.8375,-0.77
4548,56.85,-0.77
4549,56.8625,-0.785
4550,56.875,-0.77
4551,56.8875,-0.745
4552,56.9,-0.735
4553,56.9125,-0.73
4554,56.925,-0.75
4555,56.9375,-0.76
4556,56.95,-0.745
4557,56.9625,-0.705
4558,56.975,-0.715
4559,56.9875,-0.71
4560,57.0,-0.72
4561,57.0125,-0.725
4562,57.025,-0.715
4563,57.0375,-0.7
4564,57.05,-0.68
4565,57.0625,-0.67
4566,57.075,-0.695
4567,57.0875,-0.69
4568,57.1,-0.7
4569,57.1125,-0.705
4570,57.125,-0.68
4571,57.1375,-0.665
4572,57.15,-0.66
4573,57.1625,-0.67
4574,57.175,-0.675
4575,57.1875,-0.685
4576,57.2,-0.675
4577,57.2125,-0.685
4578,57.225,-0.69
4579,57.2375,-0.7
4580,57.25,-0.71
4581,57.2625,-0.73
4582,57.275,-0.765
4583,57.2875,-0.775
4584,57.3,-0.79
4585,57.3125,-0.8
4586,57.325,-0.81
4587,57.3375,-0.81
4588,57.35,-0.805
4589,57.3625,-0.81
4590,57.375,-0.845
4591,57.3875,-0.86
4592,57.4,-0.845
4593,57.4125,-0.825
4594,57.425,-0.835
4595,57.4375,-0.83
4596,57.45,-0.85
4597,57.4625,-0.85
4598,57.475,-0.84
4599,57.4875,-0.8
4600,57.5,-0.78
4601,57.5125,-0.78
4602,57.525,-0.785
4603,57.5375,-0.8
4604,57.55,-0.8
4605,57.5625,-0.77
4606,57.575,-0.735
4607,57.5875,-0.715
4608,57.6,-0.715
4609,57.6125,-0.73
4610,57.625,-0.73
4611,57.6375,-0.725
4612,57.65,-0.715
4613,57.6625,-0.725
4614,57.675,-0.725
4615,57.6875,-0.74
4616,57.7,-0.76
4617,57.7125,-0.75
4618,57.725,-0.755
4619,57.7375,-0.77
4620,57.75,-0.805
4621,57.7625,-0.835
4622,57.775,-0.86
4623,57.7875,-0.845
4624,57.8,-0.845
4625,57.8125,-0.855
4626,57.825,-0.885
4627,57.8375,-0.885
4628,57.85,-0.875
4629,57.8625,-0.895
4630,57.875,-0.94
4631,57.8875,-0.96
4632,57.9,-0.955
4633,57.9125,-0.93
4634,57.925,-0.915
4635,57.9375,-0.9
4636,57.95,-0.91
4637,57.9625,-0.915
4638,57.975,-0.925
4639,57.9875,-0.925
4640,58.0,-0.945
4641,58.0125,-0.98
4642,58.025,-1.04
4643,58.0375,-1.04
4644,58.05,-1.02
4645,58.0625,-0.955
4646,58.075,-0.805
4647,58.0875,-0.6
4648,58.1,-0.36
4649,58.1125,-0.075
4650,58.125,0.21
4651,58.1375,0.49
4652,58.15,0.665
4653,58.1625,0.625
4654,58.175,0.365
4655,58.1875,-0.005
4656,58.2,-0.395
4657,58.2125,-0.7
4658,58.225,-0.845
4659,58.2375,-0.865
4660,58.25,-0.88
4661,58.2625,-0.91
4662,58.275,-0.915
4663,58.2875,-0.9
4664,58.3,-0.915
4665,58.3125,-0.885
4666,58.325,-0.885
4667,58.3375,-0.89
4668,58.35,-0.92
4669,58.3625,-0.955
4670,58.375,-0.965
4671,58.3875,-0.93
4672,58.4,-0.905
4673,58.4125,-0.91
4674,58.425,-0.94
4675,58.4375,-0.965
4676,58.45,-0.96
4677,58.4625,-0.94
4678,58.475,-0.91
4679,58.4875,-0.925
4680,58.5,-0.94
4681,58.5125,-0.95
4682,58.525,-0.95
4683,58.5375,-0.925
4684,58.55,-0.91
4685,58.5625,-0.915
4686,58.575,-0.94
4687,58.5875,-0.955
4688,58.6,-0.93
4689,58.6125,-0.905
4690,58.625,-0.9
4691,58.6375,-0.895
4692,58.65,-0.895
4693,58.6625,-0.88
4694,58.675,-0.86
4695,58.6875,-0.855
4696,58.7,-0.87
4697,58.7125,-0.89
4698,58.725,-0.89
4699,58.7375,-0.86
4700,58.75,-0.865
4701,58.7625,-0.84
4702,58.775,-0.83
4703,58.7875,-0.82
4704,58.8,-0.82
4705,58.8125,-0.825
4706,58.825,-0.8
4707,58.8375,-0.765
4708,58.85,-0.755
4709,58.8625,-0.75
4710,58.875,-0.785
4711,58.8875,-0.8
4712,58.9,-0.77
4713,58.9125,-0.745
4714,58.925,-0.715
4715,58.9375,-0.71
4716,58.95,-0.73
4717,58.9625,-0.745
4718,58.975,-0.73
4719,58.9875,-0.715
4720,59.0,-0.69
4721,59.0125,-0.685
4722,59.025,-0.695
4723,59.0375,-0.675
4724,59.05,-0.67
4725,59.0625,-0.655
4726,59.075,-0.64
4727,59.0875,-0.61
4728,59.1,-0.615
4729,59.1125,-0.635
4730,59.125,-0.645
4731,59.1375,-0.63
4732,59.15,-0.62
4733,59.1625,-0.605
4734,59.175,-0.6
4735,59.1875,-0.61
4736,59.2,-0.605
4737,59.2125,-0.61
4738,59.225,-0.6
4739,59.2375,-0.595
4740,59.25,-0.61
4741,59.2625,-0.625
4742,59.275,-0.645
4743,59.2875,-0.68
4744,59.3,-0.695
4745,59.3125,-0.695
4746,59.325,-0.71
4747,59.3375,-0.715
4748,59.35,-0.71
4749,59.3625,-0.72
4750,59.375,-0.735
4751,59.3875,-0.745
4752,59.4,-0.74
4753,59.4125,-0.745
4754,59.425,-0.735
4755,59.4375,-0.715
4756,59.45,-0.705
4757,59.4625,-0.7
4758,59.475,-0.73
4759,59.4875,-0.72
4760,59.5,-0.725
4761,59.5125,-0.68
4762,59.525,-0.66
4763,59.5375,-0.645
4764,59.55,-0.64
4765,59.5625,-0.645
4766,59.575,-0.615
4767,59.5875,-0.59
4768,59.6,-0.59
4769,59.6125,-0.61
4770,59.625,-0.615
4771,59.6375,-0.625
4772,59.65,-0.605
4773,59.6625,-0.6
4774,59.675,-0.585
4775,59.6875,-0.625
4776,59.7,-0.665
4777,59.7125,-0.65
4778,59.725,-0.67
4779,59.7375,-0.675
4780,59.75,-0.68
4781,59.7625,-0.685
4782,59.775,-0.715
4783,59.7875,-0.74
4784,59.8,-0.76
4785,59.8125,-0.77
4786,59.825,-0.77
4787,59.8375,-0.77
4788,59.85,-0.785
4789,59.8625,-0.77
4790,59.875,-0.775
4791,59.8875,-0.775
4792,59.9,-0.765
4793,59.9125,-0.775
4794,59.925,-0.795
4795,59.9375,-0.82
4796,59.95,-0.81
4797,59.9625,-0.785
4798,59.975,-0.775
4799,59.9875,-0.775
4800,60.0,-0.805
4801,60.0125,-0.86
4802,60.025,-0.9
4803,60.0375,-0.915
4804,60.05,-0.85
4805,60.0625,-0.745
4806,60.075,-0.615
4807,60.0875,-0.405
4808,60.1,-0.155
4809,60.1125,0.105
4810,60.125,0.42
4811,60.1375,0.67
4812,60.15,0.815
4813,60.1625,0.76
4814,60.175,0.505
4815,60.1875,0.17
4816,60.2,-0.14
4817,60.2125,-0.42
4818,60.225,-0.635
4819,60.2375,-0.71
4820,60.25,-0.74
4821,60.2625,-0.775
4822,60.275,-0.775
4823,60.2875,-0.765
4824,60.3,-0.755
4825,60.3125,-0.74
4826,60.325,-0.735
4827,60.3375,-0.735
4828,60.35,-0.735
4829,60.3625,-0.755
4830,60.375,-0.785
4831,60.3875,-0.79
4832,60.4,-0.815
4833,60.4125,-0.805
4834,60.425,-0.79
4835,60.4375,-0.775
4836,60.45,-0.78
4837,60.4625,-0.805
4838,60.475,-0.81
4839,60.4875,-0.775
4840,60.5,-0.775
4841,60.5125,-0.79
4842,60.525,-0.8
4843,60.5375,-0.795
4844,60.55,-0.765
4845,60.5625,-0.755
4846,60.575,-0.755
4847,60.5875,-0.765
4848,60.6,-0.775
4849,60.6125,-0.775
4850,60.625,-0.75
4851,60.6375,-0.73
4852,60.65,-0.745
4853,60.6625,-0.755
4854,60.675,-0.75
4855,60.6875,-0.745
4856,60.7,-0.74
4857,60.7125,-0.73
4858,60.725,-0.7
4859,60.7375,-0.69
4860,60.75,-0.69
4861,60.7625,-0.7
4862,60.775,-0.695
4863,60.7875,-0.665
4864,60.8,-0.66
4865,60.8125,-0.675
4866,60.825,-0.71
4867,60.8375,-0.71
4868,60.85,-0.69
4869,60.8625,-0.66
4870,60.875,-0.64
4871,60.8875,-0.62
4872,60.9,-0.61
4873,60.9125,-0.615
4874,60.925,-0.61
4875,60.9375,-0.6
4876,60.95,-0.575
4877,60.9625,-0.56
4878,60.975,-0.56
4879,60.9875,-0.59
4880,61.0,-0.59
4881,61.0125,-0.58
4882,61.025,-0.58
4883,61.0375,-0.57
4884,61.05,-0.585
4885,61.0625,-0.565
4886,61.075,-0.535
4887,61.0875,-0.525
4888,61.1,-0.5
4889,61.1125,-0.51
4890,61.125,-0.53
4891,61.1375,-0.525
4892,61.15,-0.525
4893,61.1625,-0.485
4894,61.175,-0.485
4895,61.1875,-0.5
4896,61.2,-0.535
4897,61.2125,-0.535
4898,61.225,-0.52
4899,61.2375,-0.5
4900,61.25,-0.5
4901,61.2625,-0.475
4902,61.275,-0.48
4903,61.2875,-0.495
4904,61.3,-0.5
4905,61.3125,-0.49
4906,61.325,-0.475
4907,61.3375,-0.475
4908,61.35,-0.5
4909,61.3625,-0.53
4910,61.375,-0.525
4911,61.3875,-0.49
4912,61.4,-0.495
4913,61.4125,-0.5
4914,61.425,-0.555
4915,61.4375,-0.57
4916,61.45,-0.565
4917,61.4625,-0.55
4918,61.475,-0.545
4919,61.4875,-0.565
4920,61.5,-0.59
4921,61.5125,-0.595
4922,61.525,-0.585
4923,61.5375,-0.57
4924,61.55,-0.59
4925,61.5625,-0.56
4926,61.575,-0.565
4927,61.5875,-0.565
4928,61.6,-0.56
4929,61.6125,-0.545
4930,61.625,-0.545
4931,61.6375,-0.54
4932,61.65,-0.56
4933,61.6625,-0.56
4934,61.675,-0.55
4935,61.6875,-0.525
4936,61.7,-0.53
4937,61.7125,-0.515
4938,61.725,-0.495
4939,61.7375,-0.49
4940,61.75,-0.475
4941,61.7625,-0.49
4942,61.775,-0.48
4943,61.7875,-0.47
4944,61.8,-0.47
4945,61.8125,-0.47
4946,61.825,-0.465
4947,61.8375,-0.49
4948,61.85,-0.47
4949,61.8625,-0.49
4950,61.875,-0.52
4951,61.8875,-0.545
4952,61.9,-0.56
4953,61.9125,-0.56
4954,61.925,-0.57
4955,61.9375,-0.61
4956,61.95,-0.62
4957,61.9625,-0.66
4958,61.975,-0.645
4959,61.9875,-0.62
4960,62.0,-0.605
4961,62.0125,-0.63
4962,62.025,-0.655
4963,62.0375,-0.675
4964,62.05,-0.675
4965,62.0625,-0.66
4966,62.075,-0.64
4967,62.0875,-0.635
4968,62.1,-0.63
4969,62.1125,-0.645
4970,62.125,-0.655
4971,62.1375,-0.665
4972,62.15,-0.67
4973,62.1625,-0.685
4974,62.175,-0.705
4975,62.1875,-0.725
4976,62.2,-0.69
4977,62.2125,-0.59
4978,62.225,-0.47
4979,62.2375,-0.3
4980,62.25,-0.075
4981,62.2625,0.225
4982,62.275,0.565
4983,62.2875,0.84
4984,62.3,0.995
4985,62.3125,0.955
4986,62.325,0.7
4987,62.3375,0.35
4988,62.35,0.03
4989,62.3625,-0.255
4990,62.375,-0.43
4991,62.3875,-0.49
4992,62.4,-0.52
4993,62.4125,-0.58
4994,62.425,-0.57
4995,62.4375,-0.53
4996,62.45,-0.5
4997,62.4625,-0.51
4998,62.475,-0.54
4999,62.4875,-0.565
5000,62.5,-0.57
5001,62.5125,-0.545
5002,62.525,-0.535
5003,62.5375,-0.525
5004,62.55,-0.545
5005,62.5625,-0.58
5006,62.575,-0.575
5007,62.5875,-0.565
5008,62.6,-0.555
5009,62.6125,-0.55
5010,62.625,-0.57
5011,62.6375,-0.585
5012,62.65,-0.57
5013,62.6625,-0.56
5014,62.675,-0.555
5015,62.6875,-0.545
5016,62.7,-0.565
5017,62.7125,-0.585
5018,62.725,-0.55
5019,62.7375,-0.535
5020,62.75,-0.52
5021,62.7625,-0.535
5022,62.775,-0.55
5023,62.7875,-0.555
5024,62.8,-0.54
5025,62.8125,-0.51
5026,62.825,-0.5
5027,62.8375,-0.5
5028,62.85,-0.5
5029,62.8625,-0.525
5030,62.875,-0.525
5031,62.8875,-0.5
5032,62.9,-0.48
5033,62.9125,-0.475
5034,62.925,-0.51
5035,62.9375,-0.505
5036,62.95,-0.495
5037,62.9625,-0.475
5038,62.975,-0.46
5039,62.9875,-0.465
5040,63.0,-0.475
5041,63.0125,-0.475
5042,63.025,-0.47
5043,63.0375,-0.48
5044,63.05,-0.505
5045,63.0625,-0.5
5046,63.075,-0.49
5047,63.0875,-0.485
5048,63.1,-0.48
5049,63.1125,-0.46
5050,63.125,-0.445
5051,63.1375,-0.475
5052,63.15,-0.465
5053,63.1625,-0.46
5054,63.175,-0.435
5055,63.1875,-0.43
5056,63.2,-0.425
5057,63.2125,-0.425
5058,63.225,-0.44
5059,63.2375,-0.455
5060,63.25,-0.47
5061,63.2625,-0.455
5062,63.275,-0.435
5063,63.2875,-0.445
5064,63.3,-0.465
5065,63.3125,-0.475
5066,63.325,-0.465
5067,63.3375,-0.435
5068,63.35,-0.425
5069,63.3625,-0.43
5070,63.375,-0.445
5071,63.3875,-0.45
5072,63.4,-0.46
5073,63.4125,-0.47
5074,63.425,-0.45
5075,63.4375,-0.44
5076,63.45,-0.45
5077,63.4625,-0.47
5078,63.475,-0.485
5079,63.4875,-0.455
5080,63.5,-0.435
5081,63.5125,-0.415
5082,63.525,-0.43
5083,63.5375,-0.455
5084,63.55,-0.49
5085,63.5625,-0.48
5086,63.575,-0.46
5087,63.5875,-0.44
5088,63.6,-0.45
5089,63.6125,-0.475
5090,63.625,-0.485
5091,63.6375,-0.47
5092,63.65,-0.465
5093,63.6625,-0.46
5094,63.675,-0.46
5095,63.6875,-0.46
5096,63.7,-0.455
5097,63.7125,-0.42
5098,63.725,-0.39
5099,63.7375,-0.395
5100,63.75,-0.415
5101,63.7625,-0.405
5102,63.775,-0.375
5103,63.7875,-0.34
5104,63.8,-0.335
5105,63.8125,-0.34
5106,63.825,-0.335
5107,63.8375,-0.325
5108,63.85,-0.295
5109,63.8625,-0.275
5110,63.875,-0.245
5111,63.8875,-0.245
5112,63.9,-0.265
5113,63.9125,-0.275
5114,63.925,-0.28
5115,63.9375,-0.27
5116,63.95,-0.255
5117,63.9625,-0.265
5118,63.975,-0.285
5119,63.9875,-0.325
5120,64.0,-0.355
5121,64.0125,-0.375
5122,64.025,-0.37
5123,64.0375,-0.395
5124,64.05,-0.415
5125,64.0625,-0.445
5126,64.075,-0.445
5127,64.0875,-0.435
5128,64.1,-0.445
5129,64.1125,-0.44
5130,64.125,-0.47
5131,64.1375,-0.49
5132,64.15,-0.5
5133,64.1625,-0.49
5134,64.175,-0.49
5135,64.1875,-0.495
5136,64.2,-0.52
5137,64.2125,-0.53
5138,64.225,-0.515
5139,64.2375,-0.495
5140,64.25,-0.49
5141,64.2625,-0.505
5142,64.275,-0.505
5143,64.2875,-0.53
5144,64.3,-0.535
5145,64.3125,-0.555
5146,64.325,-0.59
5147,64.3375,-0.595
5148,64.35,-0.585
5149,64.3625,-0.54
5150,64.375,-0.425
5151,64.3875,-0.25
5152,64.4,-0.025
5153,64.4125,0.24
5154,64.425,0.515
5155,64.4375,0.785
5156,64.45,0.995
5157,64.4625,1.005
5158,64.475,0.775
5159,64.4875,0.43
5160,64.5,0.08
5161,64.5125,-0.21
5162,64.525,-0.43
5163,64.5375,-0.525
5164,64.55,-0.54
5165,64.5625,-0.53
5166,64.575,-0.53
5167,64.5875,-0.53
5168,64.6,-0.52
5169,64.6125,-0.49
5170,64.625,-0.495
5171,64.6375,-0.51
5172,64.65,-0.52
5173,64.6625,-0.53
5174,64.675,-0.515
5175,64.6875,-0.52
5176,64.7,-0.495
5177,64.7125,-0.49
5178,64.725,-0.51
5179,64.7375,-0.505
5180,64.75,-0.515
5181,64.7625,-0.515
5182,64.775,-0.5
5183,64.7875,-0.48
5184,64.8,-0.48
5185,64.8125,-0.495
5186,64.825,-0.51
5187,64.8375,-0.495
5188,64.85,-0.48
5189,64.8625,-0.465
5190,64.875,-0.45
5191,64.8875,-0.45
5192,64.9,-0.44
5193,64.9125,-0.415
5194,64.925,-0.4
5195,64.9375,-0.4
5196,64.95,-0.42
5197,64.9625,-0.42
5198,64.975,-0.41
5199,64.9875,-0.4
5200,65.0,-0.395
5201,65.0125,-0.405
5202,65.025,-0.4
5203,65.0375,-0.395
5204,65.05,-0.365
5205,65.0625,-0.355
5206,65.075,-0.33
5207,65.0875,-0.345
5208,65.1,-0.355
5209,65.1125,-0.36
5210,65.125,-0.35
5211,65.1375,-0.345
5212,65.15,-0.34
5213,65.1625,-0.335
5214,65.175,-0.35
5215,65.1875,-0.35
5216,65.2,-0.345
5217,65.2125,-0.32
5218,65.225,-0.305
5219,65.2375,-0.3
5220,65.25,-0.32
5221,65.2625,-0.325
5222,65.275,-0.32
5223,65.2875,-0.31
5224,65.3,-0.295
5225,65.3125,-0.31
5226,65.325,-0.305
5227,65.3375,-0.31
5228,65.35,-0.305
5229,65.3625,-0.28
5230,65.375,-0.255
5231,65.3875,-0.255
5232,65.4,-0.27
5233,65.4125,-0.265
5234,65.425,-0.25
5235,65.4375,-0.22
5236,65.45,-0.185
5237,65.4625,-0.175
5238,65.475,-0.2
5239,65.4875,-0.22
5240,65.5,-0.205
5241,65.5125,-0.165
5242,65.525,-0.13
5243,65.5375,-0.15
5244,65.55,-0.165
5245,65.5625,-0.16
5246,65.575,-0.14
5247,65.5875,-0.095
5248,65.6,-0.09
5249,65.6125,-0.09
5250,65.625,-0.095
5251,65.6375,-0.105
5252,65.65,-0.11
5253,65.6625,-0.09
5254,65.675,-0.1
5255,65.6875,-0.1
5256,65.7,-0.12
5257,65.7125,-0.155
5258,65.725,-0.17
5259,65.7375,-0.165
5260,65.75,-0.135
5261,65.7625,-0.135
5262,65.775,-0.15
5263,65.7875,-0.165
5264,65.8,-0.16
5265,65.8125,-0.15
5266,65.825,-0.135
5267,65.8375,-0.135
5268,65.85,-0.155
5269,65.8625,-0.16
5270,65.875,-0.15
5271,65.8875,-0.13
5272,65.9,-0.105
5273,65.9125,-0.09
5274,65.925,-0.1
5275,65.9375,-0.105
5276,65.95,-0.07
5277,65.9625,-0.025
5278,65.975,0.025
5279,65.9875,0.035
5280,66.0,0.045
5281,66.0125,0.025
5282,66.025,0.02
5283,66.0375,0.015
5284,66.05,0.01
5285,66.0625,-0.005
5286,66.075,-0.025
5287,66.0875,-0.045
5288,66.1,-0.045
5289,66.1125,-0.045
5290,66.125,-0.05
5291,66.1375,-0.07
5292,66.15,-0.1
5293,66.1625,-0.14
5294,66.175,-0.175
5295,66.1875,-0.19
5296,66.2,-0.185
5297,66.2125,-0.195
5298,66.225,-0.235
5299,66.2375,-0.26
5300,66.25,-0.26
5301,66.2625,-0.27
5302,66.275,-0.265
5303,66.2875,-0.25
5304,66.3,-0.27
5305,66.3125,-0.285
5306,66.325,-0.285
5307,66.3375,-0.245
5308,66.35,-0.22
5309,66.3625,-0.235
5310,66.375,-0.245
5311,66.3875,-0.28
5312,66.4,-0.3
5313,66.4125,-0.315
5314,66.425,-0.335
5315,66.4375,-0.315
5316,66.45,-0.24
5317,66.4625,-0.125
5318,66.475,0.07
5319,66.4875,0.325
5320,66.5,0.62
5321,66.5125,0.9
5322,66.525,1.105
5323,66.5375,1.22
5324,66.55,1.165
5325,66.5625,0.855
5326,66.575,0.405
5327,66.5875,0.0
5328,66.6,-0.3
5329,66.6125,-0.41
5330,66.625,-0.345
5331,66.6375,-0.29
5332,66.65,-0.255
5333,66.6625,-0.205
5334,66.675,-0.18
5335,66.6875,-0.165
5336,66.7,-0.16
5337,66.7125,-0.18
5338,66.725,-0.165
5339,66.7375,-0.145
5340,66.75,-0.145
5341,66.7625,-0.155
5342,66.775,-0.155
5343,66.7875,-0.155
5344,66.8,-0.14
5345,66.8125,-0.175
5346,66.825,-0.21
5347,66.8375,-0.22
5348,66.85,-0.195
5349,66.8625,-0.135
5350,66.875,-0.105
5351,66.8875,-0.11
5352,66.9,-0.15
5353,66.9125,-0.19
5354,66.925,-0.195
5355,66.9375,-0.19
5356,66.95,-0.165
5357,66.9625,-0.155
5358,66.975,-0.16
5359,66.9875,-0.145
5360,67.0,-0.145
5361,67.0125,-0.12
5362,67.025,-0.09
5363,67.0375,-0.075
5364,67.05,-0.085
5365,67.0625,-0.08
5366,67.075,-0.075
5367,67.0875,-0.06
5368,67.1,-0.045
5369,67.1125,-0.02
5370,67.125,-0.02
5371,67.1375,-0.03
5372,67.15,-0.02
5373,67.1625,0.01
5374,67.175,0.015
5375,67.1875,0.015
5376,67.2,0.005
5377,67.2125,0.01
5378,67.225,0.035
5379,67.2375,0.045
5380,67.25,0.045
5381,67.2625,0.08
5382,67.275,0.07
5383,67.2875,0.055
5384,67.3,0.06
5385,67.3125,0.07
5386,67.325,0.1
5387,67.3375,0.1
5388,67.35,0.085
5389,67.3625,0.08
5390,67.375,0.095
5391,67.3875,0.12
5392,67.4,0.135
5393,67.4125,0.14
5394,67.425,0.105
5395,67.4375,0.105
5396,67.45,0.085
5397,67.4625,0.09
5398,67.475,0.11
5399,67.4875,0.115
5400,67.5,0.11
5401,67.5125,0.105
5402,67.525,0.11
5403,67.5375,0.125
5404,67.55,0.145
5405,67.5625,0.145
5406,67.575,0.15
5407,67.5875,0.155
5408,67.6,0.175
5409,67.6125,0.175
5410,67.625,0.185
5411,67.6375,0.195
5412,67.65,0.165
5413,67.6625,0.135
5414,67.675,0.135
5415,67.6875,0.145
5416,67.7,0.14
5417,67.7125,0.13
5418,67.725,0.1
5419,67.7375,0.09
5420,67.75,0.09
5421,67.7625,0.085
5422,67.775,0.095
5423,67.7875,0.075
5424,67.8,0.05
5425,67.8125,0.03
5426,67.825,0.025
5427,67.8375,0.035
5428,67.85,0.04
5429,67.8625,0.03
5430,67.875,0.0
5431,67.8875,-0.01
5432,67.9,-0.01
5433,67.9125,-0.005
5434,67.925,-0.005
5435,67.9375,-0.01
5436,67.95,-0.01
5437,67.9625,-0.005
5438,67.975,0.01
5439,67.9875,0.04
5440,68.0,0.07
5441,68.0125,0.085
5442,68.025,0.09
5443,68.0375,0.095
5444,68.05,0.125
5445,68.0625,0.15
5446,68.075,0.185
5447,68.0875,0.21
5448,68.1,0.24
5449,68.1125,0.25
5450,68.125,0.28
5451,68.1375,0.275
5452,68.15,0.285
5453,68.1625,0.29
5454,68.175,0.295
5455,68.1875,0.28
5456,68.2,0.275
5457,68.2125,0.275
5458,68.225,0.275
5459,68.2375,0.24
5460,68.25,0.205
5461,68.2625,0.18
5462,68.275,0.165
5463,68.2875,0.155
5464,68.3,0.15
5465,68.3125,0.12
5466,68.325,0.095
5467,68.3375,0.085
5468,68.35,0.085
5469,68.3625,0.08
5470,68.375,0.1
5471,68.3875,0.1
5472,68.4,0.085
5473,68.4125,0.06
5474,68.425,0.06
5475,68.4375,0.085
5476,68.45,0.09
5477,68.4625,0.09
5478,68.475,0.08
5479,68.4875,0.075
5480,68.5,0.095
5481,68.5125,0.11
5482,68.525,0.1
5483,68.5375,0.095
5484,68.55,0.07
5485,68.5625,0.03
5486,68.575,0.04
5487,68.5875,0.09
5488,68.6,0.205
5489,68.6125,0.325
5490,68.625,0.5
5491,68.6375,0.68
5492,68.65,0.905
5493,68.6625,1.175
5494,68.675,1.44
5495,68.6875,1.635
5496,68.7,1.72
5497,68.7125,1.6
5498,68.725,1.295
5499,68.7375,0.9
5500,68.75,0.54
5501,68.7625,0.26
5502,68.775,0.08
5503,68.7875,0.035
5504,68.8,0.04
5505,68.8125,0.065
5506,68.825,0.04
5507,68.8375,0.04
5508,68.85,0.045
5509,68.8625,0.06
5510,68.875,0.07
5511,68.8875,0.065
5512,68.9,0.085
5513,68.9125,0.08
5514,68.925,0.07
5515,68.9375,0.055
5516,68.95,0.045
5517,68.9625,0.06
5518,68.975,0.05
5519,68.9875,0.04
5520,69.0,0.02
5521,69.0125,0.015
5522,69.025,0.025
5523,69.0375,0.02
5524,69.05,0.005
5525,69.0625,0.005
5526,69.075,0.015
5527,69.0875,0.045
5528,69.1,0.065
5529,69.1125,0.055
5530,69.125,0.06
5531,69.1375,0.055
5532,69.15,0.025
5533,69.1625,-0.01
5534,69.175,-0.035
5535,69.1875,-0.01
5536,69.2,0.01
5537,69.2125,0.005
5538,69.225,-0.01
5539,69.2375,-0.03
5540,69.25,-0.015
5541,69.2625,0.01
5542,69.275,0.015
5543,69.2875,0.015
5544,69.3,0.045
5545,69.3125,0.06
5546,69.325,0.065
5547,69.3375,0.065
5548,69.35,0.075
5549,69.3625,0.09
5550,69.375,0.08
5551,69.3875,0.075
5552,69.4,0.08
5553,69.4125,0.11
5554,69.425,0.115
5555,69.4375,0.125
5556,69.45,0.12
5557,69.4625,0.12
5558,69.475,0.115
5559,69.4875,0.15
5560,69.5,0.175
5561,69.5125,0.185
5562,69.525,0.165
5563,69.5375,0.16
5564,69.55,0.18
5565,69.5625,0.195
5566,69.575,0.215
5567,69.5875,0.23
5568,69.6,0.22
5569,69.6125,0.205
5570,69.625,0.2
5571,69.6375,0.21
5572,69.65,0.245
5573,69.6625,0.255
5574,69.675,0.255
5575,69.6875,0.25
5576,69.7,0.24
5577,69.7125,0.27
5578,69.725,0.3
5579,69.7375,0.315
5580,69.75,0.31
5581,69.7625,0.275
5582,69.775,0.28
5583,69.7875,0.28
5584,69.8,0.305
5585,69.8125,0.345
5586,69.825,0.34
5587,69.8375,0.315
5588,69.85,0.335
5589,69.8625,0.335
5590,69.875,0.325
5591,69.8875,0.33
5592,69.9,0.33
5593,69.9125,0.305
5594,69.925,0.29
5595,69.9375,0.295
5596,69.95,0.325
5597,69.9625,0.315
5598,69.975,0.245
5599,69.9875,0.22
5600,70.0,0.22
5601,70.0125,0.26
5602,70.025,0.305
5603,70.0375,0.3
5604,70.05,0.245
5605,70.0625,0.21
5606,70.075,0.22
5607,70.0875,0.255
5608,70.1,0.305
5609,70.1125,0.3
5610,70.125,0.285
5611,70.1375,0.255
5612,70.15,0.245
5613,70.1625,0.24
5614,70.175,0.27
5615,70.1875,0.305
5616,70.2,0.3
5617,70.2125,0.305
5618,70.225,0.31
5619,70.2375,0.33
5620,70.25,0.365
5621,70.2625,0.385
5622,70.275,0.38
5623,70.2875,0.38
5624,70.3,0.385
5625,70.3125,0.425
5626,70.325,0.49
5627,70.3375,0.515
5628,70.35,0.52
5629,70.3625,0.525
5630,70.375,0.545
5631,70.3875,0.59
5632,70.4,0.61
5633,70.4125,0.63
5634,70.425,0.615
5635,70.4375,0.6
5636,70.45,0.61
5637,70.4625,0.645
5638,70.475,0.675
5639,70.4875,0.67
5640,70.5,0.62
5641,70.5125,0.605
5642,70.525,0.605
5643,70.5375,0.645
5644,70.55,0.675
5645,70.5625,0.655
5646,70.575,0.62
5647,70.5875,0.615
5648,70.6,0.63
5649,70.6125,0.64
5650,70.625,0.66
5651,70.6375,0.66
5652,70.65,0.635
5653,70.6625,0.635
5654,70.675,0.635
5655,70.6875,0.64
5656,70.7,0.65
5657,70.7125,0.64
5658,70.725,0.625
5659,70.7375,0.64
5660,70.75,0.655
5661,70.7625,0.69
5662,70.775,0.74
5663,70.7875,0.77
5664,70.8,0.765
5665,70.8125,0.845
5666,70.825,0.95
5667,70.8375,1.125
5668,70.85,1.36
5669,70.8625,1.615
5670,70.875,1.905
5671,70.8875,2.16
5672,70.9,2.38
5673,70.9125,2.54
5674,70.925,2.58
5675,70.9375,2.44
5676,70.95,2.11
5677,70.9625,1.705
5678,70.975,1.295
5679,70.9875,1.02
5680,71.0,0.9
5681,71.0125,0.83
5682,71.025,0.755
5683,71.0375,0.695
5684,71.05,0.675
5685,71.0625,0.68
5686,71.075,0.685
5687,71.0875,0.645
5688,71.1,0.605
5689,71.1125,0.59
5690,71.125,0.59
5691,71.1375,0.59
5692,71.15,0.58
5693,71.1625,0.585
5694,71.175,0.555
5695,71.1875,0.52
5696,71.2,0.515
5697,71.2125,0.51
5698,71.225,0.51
5699,71.2375,0.51
5700,71.25,0.465
5701,71.2625,0.47
5702,71.275,0.49
5703,71.2875,0.49
5704,71.3,0.53
5705,71.3125,0.525
5706,71.325,0.51
5707,71.3375,0.49
5708,71.35,0.49
5709,71.3625,0.505
5710,71.375,0.51
5711,71.3875,0.54
5712,71.4,0.52
5713,71.4125,0.53
5714,71.425,0.525
5715,71.4375,0.53
5716,71.45,0.54
5717,71.4625,0.555
5718,71.475,0.53
5719,71.4875,0.525
5720,71.5,0.53
5721,71.5125,0.55
5722,71.525,0.555
5723,71.5375,0.555
5724,71.55,0.54
5725,71.5625,0.525
5726,71.575,0.525
5727,71.5875,0.53
5728,71.6,0.505
5729,71.6125,0.48
5730,71.625,0.445
5731,71.6375,0.425
5732,71.65,0.41
5733,71.6625,0.41
5734,71.675,0.395
5735,71.6875,0.395
5736,71.7,0.37
5737,71.7125,0.34
5738,71.725,0.33
5739,71.7375,0.365
5740,71.75,0.405
5741,71.7625,0.435
5742,71.775,0.445
5743,71.7875,0.445
5744,71.8,0.435
5745,71.8125,0.42
5746,71.825,0.425
5747,71.8375,0.45
5748,71.85,0.45
5749,71.8625,0.455
5750,71.875,0.47
5751,71.8875,0.5
5752,71.9,0.545
5753,71.9125,0.565
5754,71.925,0.58
5755,71.9375,0.555
5756,71.95,0.565
5757,71.9625,0.585
5758,71.975,0.615
5759,71.9875,0.65
5760,72.0,0.665
5761,72.0125,0.665
5762,72.025,0.67
5763,72.0375,0.7
5764,72.05,0.72
5765,72.0625,0.705
5766,72.075,0.685
5767,72.0875,0.66
5768,72.1,0.655
5769,72.1125,0.65
5770,72.125,0.64
5771,72.1375,0.645
5772,72.15,0.64
5773,72.1625,0.635
5774,72.175,0.63
5775,72.1875,0.62
5776,72.2,0.64
5777,72.2125,0.645
5778,72.225,0.61
5779,72.2375,0.585
5780,72.25,0.575
5781,72.2625,0.6
5782,72.275,0.595
5783,72.2875,0.58
5784,72.3,0.575
5785,72.3125,0.56
5786,72.325,0.565
5787,72.3375,0.575
5788,72.35,0.605
5789,72.3625,0.6
5790,72.375,0.58
5791,72.3875,0.585
5792,72.4,0.585
5793,72.4125,0.6
5794,72.425,0.615
5795,72.4375,0.62
5796,72.45,0.595
5797,72.4625,0.595
5798,72.475,0.62
5799,72.4875,0.635
5800,72.5,0.665
5801,72.5125,0.69
5802,72.525,0.69
5803,72.5375,0.665
5804,72.55,0.695
5805,72.5625,0.695
5806,72.575,0.73
5807,72.5875,0.76
5808,72.6,0.765
5809,72.6125,0.765
5810,72.625,0.76
5811,72.6375,0.78
5812,72.65,0.815
5813,72.6625,0.85
5814,72.675,0.865
5815,72.6875,0.875
5816,72.7,0.9
5817,72.7125,0.92
5818,72.725,0.915
5819,72.7375,0.885
5820,72.75,0.85
5821,72.7625,0.835
5822,72.775,0.835
5823,72.7875,0.825
5824,72.8,0.835
5825,72.8125,0.815
5826,72.825,0.785
5827,72.8375,0.77
5828,72.85,0.775
5829,72.8625,0.785
5830,72.875,0.81
5831,72.8875,0.84
5832,72.9,0.875
5833,72.9125,0.93
5834,72.925,0.99
5835,72.9375,1.06
5836,72.95,1.125
5837,72.9625,1.195
5838,72.975,1.27
5839,72.9875,1.325
5840,73.0,1.385
5841,73.0125,1.455
5842,73.025,1.54
5843,73.0375,1.62
5844,73.05,1.7
5845,73.0625,1.77
5846,73.075,1.86
5847,73.0875,1.92
5848,73.1,2.015
5849,73.1125,2.13
5850,73.125,2.245
5851,73.1375,2.325
5852,73.15,2.4
5853,73.1625,2.47
5854,73.175,2.515
5855,73.1875,2.54
5856,73.2,2.555
5857,73.2125,2.55
5858,73.225,2.48
5859,73.2375,2.26
5860,73.25,1.945
5861,73.2625,1.565
5862,73.275,1.21
5863,73.2875,0.935
5864,73.3,0.77
5865,73.3125,0.68
5866,73.325,0.595
5867,73.3375,0.51
5868,73.35,0.46
5869,73.3625,0.435
5870,73.375,0.435
5871,73.3875,0.45
5872,73.4,0.44
5873,73.4125,0.41
5874,73.425,0.375
5875,73.4375,0.355
5876,73.45,0.345
5877,73.4625,0.34
5878,73.475,0.35
5879,73.4875,0.35
5880,73.5,0.315
5881,73.5125,0.29
5882,73.525,0.285
5883,73.5375,0.305
5884,73.55,0.305
5885,73.5625,0.29
5886,73.575,0.27
5887,73.5875,0.27
5888,73.6,0.27
5889,73.6125,0.285
5890,73.625,0.29
5891,73.6375,0.28
5892,73.65,0.265
5893,73.6625,0.235
5894,73.675,0.225
5895,73.6875,0.215
5896,73.7,0.215
5897,73.7125,0.215
5898,73.725,0.185
5899,73.7375,0.17
5900,73.75,0.16
5901,73.7625,0.16
5902,73.775,0.175
5903,73.7875,0.16
5904,73.8,0.125
5905,73.8125,0.11
5906,73.825,0.095
5907,73.8375,0.105
5908,73.85,0.1
5909,73.8625,0.085
5910,73.875,0.06
5911,73.8875,0.03
5912,73.9,0.025
5913,73.9125,0.035
5914,73.925,0.07
5915,73.9375,0.07
5916,73.95,0.03
5917,73.9625,0.005
5918,73.975,0.01
5919,73.9875,0.035
5920,74.0,0.06
5921,74.0125,0.045
5922,74.025,0.02
5923,74.0375,0.015
5924,74.05,0.015
5925,74.0625,0.025
5926,74.075,0.04
5927,74.0875,0.05
5928,74.1,0.03
5929,74.1125,0.03
5930,74.125,0.06
5931,74.1375,0.08
5932,74.15,0.105
5933,74.1625,0.125
5934,74.175,0.115
5935,74.1875,0.12
5936,74.2,0.135
5937,74.2125,0.165
5938,74.225,0.195
5939,74.2375,0.21
5940,74.25,0.215
5941,74.2625,0.235
5942,74.275,0.265
5943,74.2875,0.305
5944,74.3,0.36
5945,74.3125,0.41
5946,74.325,0.43
5947,74.3375,0.435
5948,74.35,0.445
5949,74.3625,0.465
5950,74.375,0.485
5951,74.3875,0.505
5952,74.4,0.485
5953,74.4125,0.485
5954,74.425,0.48
5955,74.4375,0.48
5956,74.45,0.49
5957,74.4625,0.5
5958,74.475,0.47
5959,74.4875,0.465
5960,74.5,0.465
5961,74.5125,0.475
5962,74.525,0.49
5963,74.5375,0.48
5964,74.55,0.455
5965,74.5625,0.435
5966,74.575,0.43
5967,74.5875,0.435
5968,74.6,0.435
5969,74.6125,0.44
5970,74.625,0.415
5971,74.6375,0.385
5972,74.65,0.39
5973,74.6625,0.42
5974,74.675,0.435
5975,74.6875,0.41
5976,74.7,0.385
5977,74.7125,0.38
5978,74.725,0.38
5979,74.7375,0.39
5980,74.75,0.39
5981,74.7625,0.4
5982,74.775,0.375
5983,74.7875,0.37
5984,74.8,0.35
5985,74.8125,0.35
5986,74.825,0.375
5987,74.8375,0.38
5988,74.85,0.365
5989,74.8625,0.35
5990,74.875,0.375
5991,74.8875,0.405
5992,74.9,0.43
5993,74.9125,0.44
5994,74.925,0.42
5995,74.9375,0.425
5996,74.95,0.43
5997,74.9625,0.465
5998,74.975,0.515
5999,74.9875,0.545
6000,75.0,0.545
6001,75.0125,0.54
6002,75.025,0.56
6003,75.0375,0.58
6004,75.05,0.615
6005,75.0625,0.625
6006,75.075,0.63
6007,75.0875,0.64
6008,75.1,0.645
6009,75.1125,0.645
6010,75.125,0.655
6011,75.1375,0.685
6012,75.15,0.66
6013,75.1625,0.64
6014,75.175,0.615
6015,75.1875,0.6
6016,75.2,0.575
6017,75.2125,0.56
6018,75.225,0.535
6019,75.2375,0.515
6020,75.25,0.51
6021,75.2625,0.5
6022,75.275,0.485
6023,75.2875,0.455
6024,75.3,0.42
6025,75.3125,0.395
6026,75.325,0.395
6027,75.3375,0.405
6028,75.35,0.415
6029,75.3625,0.39
6030,75.375,0.365
6031,75.3875,0.355
6032,75.4,0.34
6033,75.4125,0.34
6034,75.425,0.34
6035,75.4375,0.33
6036,75.45,0.295
6037,75.4625,0.245
6038,75.475,0.245
6039,75.4875,0.305
6040,75.5,0.41
6041,75.5125,0.57
6042,75.525,0.74
6043,75.5375,0.94
6044,75.55,1.185
6045,75.5625,1.44
6046,75.575,1.695
6047,75.5875,1.89
6048,75.6,1.945
6049,75.6125,1.785
6050,75.625,1.475
6051,75.6375,1.1
6052,75.65,0.745
6053,75.6625,0.49
6054,75.675,0.35
6055,75.6875,0.315
6056,75.7,0.31
6057,75.7125,0.305
6058,75.725,0.285
6059,75.7375,0.285
6060,75.75,0.29
6061,75.7625,0.295
6062,75.775,0.285
6063,75.7875,0.28
6064,75.8,0.29
6065,75.8125,0.295
6066,75.825,0.265
6067,75.8375,0.27
6068,75.85,0.275
6069,75.8625,0.255
6070,75.875,0.27
6071,75.8875,0.26
6072,75.9,0.24
6073,75.9125,0.23
6074,75.925,0.235
6075,75.9375,0.245
6076,75.95,0.245
6077,75.9625,0.23
6078,75.975,0.23
6079,75.9875,0.215
6080,76.0,0.22
6081,76.0125,0.255
6082,76.025,0.265
6083,76.0375,0.265
6084,76.05,0.235
6085,76.0625,0.22
6086,76.075,0.225
6087,76.0875,0.235
6088,76.1,0.275
6089,76.1125,0.27
6090,76.125,0.255
6091,76.1375,0.25
6092,76.15,0.27
6093,76.1625,0.29
6094,76.175,0.305
6095,76.1875,0.305
6096,76.2,0.27
6097,76.2125,0.255
6098,76.225,0.29
6099,76.2375,0.3
6100,76.25,0.33
6101,76.2625,0.345
6102,76.275,0.345
6103,76.2875,0.32
6104,76.3,0.315
6105,76.3125,0.34
6106,76.325,0.355
6107,76.3375,0.35
6108,76.35,0.335
6109,76.3625,0.32
6110,76.375,0.33
6111,76.3875,0.365
6112,76.4,0.365
6113,76.4125,0.375
6114,76.425,0.37
6115,76.4375,0.375
6116,76.45,0.385
6117,76.4625,0.395
6118,76.475,0.405
6119,76.4875,0.41
6120,76.5,0.4
6121,76.5125,0.395
6122,76.525,0.395
6123,76.5375,0.41
6124,76.55,0.41
6125,76.5625,0.4
6126,76.575,0.38
6127,76.5875,0.395
6128,76.6,0.42
6129,76.6125,0.44
6130,76.625,0.465
6131,76.6375,0.465
6132,76.65,0.455
6133,76.6625,0.46
6134,76.675,0.475
6135,76.6875,0.48
6136,76.7,0.5
6137,76.7125,0.5
6138,76.725,0.485
6139,76.7375,0.475
6140,76.75,0.495
6141,76.7625,0.5
6142,76.775,0.51
6143,76.7875,0.52
6144,76.8,0.495
6145,76.8125,0.495
6146,76.825,0.495
6147,76.8375,0.5
6148,76.85,0.505
6149,76.8625,0.495
6150,76.875,0.46
6151,76.8875,0.44
6152,76.9,0.445
6153,76.9125,0.46
6154,76.925,0.45
6155,76.9375,0.425
6156,76.95,0.39
6157,76.9625,0.375
6158,76.975,0.375
6159,76.9875,0.365
6160,77.0,0.375
6161,77.0125,0.365
6162,77.025,0.365
6163,77.0375,0.35
6164,77.05,0.335
6165,77.0625,0.315
6166,77.075,0.3
6167,77.0875,0.285
6168,77.1,0.28
6169,77.1125,0.285
6170,77.125,0.3
6171,77.1375,0.29
6172,77.15,0.285
6173,77.1625,0.295
6174,77.175,0.305
6175,77.1875,0.32
6176,77.2,0.32
6177,77.2125,0.32
6178,77.225,0.325
6179,77.2375,0.34
6180,77.25,0.32
6181,77.2625,0.315
6182,77.275,0.285
6183,77.2875,0.295
6184,77.3,0.33
6185,77.3125,0.33
6186,77.325,0.3
6187,77.3375,0.29
6188,77.35,0.26
6189,77.3625,0.285
6190,77.375,0.295
6191,77.3875,0.295
6192,77.4,0.29
6193,77.4125,0.305
6194,77.425,0.33
6195,77.4375,0.355
6196,77.45,0.355
6197,77.4625,0.34
6198,77.475,0.32
6199,77.4875,0.315
6200,77.5,0.33
6201,77.5125,0.335
6202,77.525,0.345
6203,77.5375,0.355
6204,77.55,0.325
6205,77.5625,0.295
6206,77.575,0.28
6207,77.5875,0.285
6208,77.6,0.285
6209,77.6125,0.28
6210,77.625,0.235
6211,77.6375,0.205
6212,77.65,0.175
6213,77.6625,0.175
6214,77.675,0.175
6215,77.6875,0.16
6216,77.7,0.135
6217,77.7125,0.115
6218,77.725,0.11
6219,77.7375,0.125
6220,77.75,0.135
6221,77.7625,0.145
6222,77.775,0.135
6223,77.7875,0.12
6224,77.8,0.14
6225,77.8125,0.165
6226,77.825,0.205
6227,77.8375,0.22
6228,77.85,0.235
6229,77.8625,0.25
6230,77.875,0.265
6231,77.8875,0.3
6232,77.9,0.315
6233,77.9125,0.31
6234,77.925,0.295
6235,77.9375,0.295
6236,77.95,0.32
6237,77.9625,0.355
6238,77.975,0.38
6239,77.9875,0.45
6240,78.0,0.51
6241,78.0125,0.61
6242,78.025,0.76
6243,78.0375,0.95
6244,78.05,1.145
6245,78.0625,1.34
6246,78.075,1.53
6247,78.0875,1.73
6248,78.1,1.925
6249,78.1125,2.06
6250,78.125,2.125
6251,78.1375,2.1
6252,78.15,1.935
6253,78.1625,1.685
6254,78.175,1.345
6255,78.1875,0.97
6256,78.2,0.645
6257,78.2125,0.41
6258,78.225,0.29
6259,78.2375,0.2
6260,78.25,0.16
6261,78.2625,0.14
6262,78.275,0.145
6263,78.2875,0.125
6264,78.3,0.065
6265,78.3125,-0.005
6266,78.325,-0.035
6267,78.3375,-0.055
6268,78.35,-0.055
6269,78.3625,-0.06
6270,78.375,-0.075
6271,78.3875,-0.1
6272,78.4,-0.105
6273,78.4125,-0.1
6274,78.425,-0.11
6275,78.4375,-0.1
6276,78.45,-0.125
6277,78.4625,-0.135
6278,78.475,-0.14
6279,78.4875,-0.145
6280,78.5,-0.15
6281,78.5125,-0.17
6282,78.525,-0.185
6283,78.5375,-0.23
6284,78.55,-0.25
6285,78.5625,-0.245
6286,78.575,-0.24
6287,78.5875,-0.245
6288,78.6,-0.265
6289,78.6125,-0.29
6290,78.625,-0.275
6291,78.6375,-0.265
6292,78.65,-0.25
6293,78.6625,-0.24
6294,78.675,-0.245
6295,78.6875,-0.255
6296,78.7,-0.255
6297,78.7125,-0.235
6298,78.725,-0.22
6299,78.7375,-0.215
6300,78.75,-0.22
6301,78.7625,-0.235
6302,78.775,-0.24
6303,78.7875,-0.22
6304,78.8,-0.195
6305,78.8125,-0.2
6306,78.825,-0.195
6307,78.8375,-0.215
6308,78.85,-0.22
6309,78.8625,-0.22
6310,78.875,-0.195
6311,78.8875,-0.175
6312,78.9,-0.17
6313,78.9125,-0.17
6314,78.925,-0.19
6315,78.9375,-0.17
6316,78.95,-0.165
6317,78.9625,-0.17
6318,78.975,-0.175
6319,78.9875,-0.185
6320,79.0,-0.185
6321,79.0125,-0.175
6322,79.025,-0.16
6323,79.0375,-0.17
6324,79.05,-0.185
6325,79.0625,-0.185
6326,79.075,-0.17
6327,79.0875,-0.16
6328,79.1,-0.15
6329,79.1125,-0.15
6330,79.125,-0.18
6331,79.1375,-0.2
6332,79.15,-0.2
6333,79.1625,-0.175
6334,79.175,-0.165
6335,79.1875,-0.155
6336,79.2,-0.165
6337,79.2125,-0.16
6338,79.225,-0.165
6339,79.2375,-0.145
6340,79.25,-0.13
6341,79.2625,-0.11
6342,79.275,-0.1
6343,79.2875,-0.105
6344,79.3,-0.095
6345,79.3125,-0.075
6346,79.325,-0.065
6347,79.3375,-0.05
6348,79.35,-0.055
6349,79.3625,-0.015
6350,79.375,-0.02
6351,79.3875,0.015
6352,79.4,0.035
6353,79.4125,0.045
6354,79.425,0.025
6355,79.4375,0.01
6356,79.45,0.01
6357,79.4625,0.02
6358,79.475,0.025
6359,79.4875,0.025
6360,79.5,-0.005
6361,79.5125,-0.015
6362,79.525,-0.01
6363,79.5375,0.01
6364,79.55,0.04
6365,79.5625,0.05
6366,79.575,0.04
6367,79.5875,0.025
6368,79.6,0.015
6369,79.6125,0.02
6370,79.625,0.02
6371,79.6375,0.02
6372,79.65,0.005
6373,79.6625,-0.01
6374,79.675,-0.015
6375,79.6875,0.005
6376,79.7,0.03
6377,79.7125,0.025
6378,79.725,0.025
6379,79.7375,0.015
6380,79.75,0.025
6381,79.7625,0.04
6382,79.775,0.06
6383,79.7875,0.055
6384,79.8,0.035
6385,79.8125,0.0
6386,79.825,0.015
6387,79.8375,0.015
6388,79.85,0.05
6389,79.8625,0.075
6390,79.875,0.045
6391,79.8875,0.02
6392,79.9,0.015
6393,79.9125,0.025
6394,79.925,0.05
6395,79.9375,0.07
6396,79.95,0.035
6397,79.9625,0.03
6398,79.975,0.045
6399,79.9875,0.06
6400,80.0,0.09
6401,80.0125,0.09
6402,80.025,0.09
6403,80.0375,0.065
6404,80.05,0.07
6405,80.0625,0.1
6406,80.075,0.13
6407,80.0875,0.13
6408,80.1,0.13
6409,80.1125,0.11
6410,80.125,0.115
6411,80.1375,0.11
6412,80.15,0.12
6413,80.1625,0.12
6414,80.175,0.075
6415,80.1875,0.03
6416,80.2,0.015
6417,80.2125,0.02
6418,80.225,-0.01
6419,80.2375,-0.055
6420,80.25,-0.11
6421,80.2625,-0.115
6422,80.275,-0.09
6423,80.2875,-0.055
6424,80.3,-0.02
6425,80.3125,0.005
6426,80.325,0.025
6427,80.3375,0.045
6428,80.35,0.09
6429,80.3625,0.175
6430,80.375,0.245
6431,80.3875,0.305
6432,80.4,0.35
6433,80.4125,0.405
6434,80.425,0.465
6435,80.4375,0.53
6436,80.45,0.61
6437,80.4625,0.685
6438,80.475,0.78
6439,80.4875,0.85
6440,80.5,0.925
6441,80.5125,0.985
6442,80.525,1.045
6443,80.5375,1.125
6444,80.55,1.195
6445,80.5625,1.275
6446,80.575,1.35
6447,80.5875,1.415
6448,80.6,1.465
6449,80.6125,1.515
6450,80.625,1.565
6451,80.6375,1.62
6452,80.65,1.68
6453,80.6625,1.74
6454,80.675,1.75
6455,80.6875,1.635
6456,80.7,1.35
6457,80.7125,0.99
6458,80.725,0.67
6459,80.7375,0.395
6460,80.75,0.19
6461,80.7625,0.055
6462,80.775,-0.05
6463,80.7875,-0.13
6464,80.8,-0.195
6465,80.8125,-0.225
6466,80.825,-0.225
6467,80.8375,-0.245
6468,80.85,-0.285
6469,80.8625,-0.33
6470,80.875,-0.345
6471,80.8875,-0.345
6472,80.9,-0.345
6473,80.9125,-0.36
6474,80.925,-0.37
6475,80.9375,-0.39
6476,80.95,-0.4
6477,80.9625,-0.395
6478,80.975,-0.4
6479,80.9875,-0.39
6480,81.0,-0.415
6481,81.0125,-0.445
6482,81.025,-0.48
6483,81.0375,-0.48
6484,81.05,-0.48
6485,81.0625,-0.495
6486,81.075,-0.525
6487,81.0875,-0.56
6488,81.1,-0.595
6489,81.1125,-0.615
6490,81.125,-0.625
6491,81.1375,-0.65
6492,81.15,-0.675
6493,81.1625,-0.705
6494,81.175,-0.725
6495,81.1875,-0.725
6496,81.2,-0.725
6497,81.2125,-0.725
6498,81.225,-0.755
6499,81.2375,-0.785
6500,81.25,-0.79
6501,81.2625,-0.795
6502,81.275,-0.78
6503,81.2875,-0.78
6504,81.3,-0.79
6505,81.3125,-0.8
6506,81.325,-0.775
6507,81.3375,-0.775
6508,81.35,-0.795
6509,81.3625,-0.82
6510,81.375,-0.865
6511,81.3875,-0.905
6512,81.4,-0.93
6513,81.4125,-0.955
6514,81.425,-0.935
6515,81.4375,-0.915
6516,81.45,-0.925
6517,81.4625,-0.96
6518,81.475,-0.965
6519,81.4875,-0.965
6520,81.5,-0.97
6521,81.5125,-0.975
6522,81.525,-0.99
6523,81.5375,-1.0
6524,81.55,-0.995
6525,81.5625,-0.99
6526,81.575,-0.995
6527,81.5875,-1.015
6528,81.6,-1.02
6529,81.6125,-1.01
6530,81.625,-1.005
6531,81.6375,-1.01
6532,81.65,-0.975
6533,81.6625,-0.975
6534,81.675,-0.985
6535,81.6875,-1.0
6536,81.7,-1.005
6537,81.7125,-0.995
6538,81.725,-0.97
6539,81.7375,-0.935
6540,81.75,-0.92
6541,81.7625,-0.915
6542,81.775,-0.9
6543,81.7875,-0.865
6544,81.8,-0.82
6545,81.8125,-0.78
6546,81.825,-0.73
6547,81.8375,-0.71
6548,81.85,-0.67
6549,81.8625,-0.635
6550,81.875,-0.59
6551,81.8875,-0.54
6552,81.9,-0.5
6553,81.9125,-0.485
6554,81.925,-0.48
6555,81.9375,-0.485
6556,81.95,-0.47
6557,81.9625,-0.45
6558,81.975,-0.43
6559,81.9875,-0.435
6560,82.0,-0.415
6561,82.0125,-0.405
6562,82.025,-0.395
6563,82.0375,-0.385
6564,82.05,-0.4
6565,82.0625,-0.425
6566,82.075,-0.425
6567,82.0875,-0.385
6568,82.1,-0.37
6569,82.1125,-0.37
6570,82.125,-0.395
6571,82.1375,-0.39
6572,82.15,-0.365
6573,82.1625,-0.34
6574,82.175,-0.33
6575,82.1875,-0.33
6576,82.2,-0.35
6577,82.2125,-0.35
6578,82.225,-0.36
6579,82.2375,-0.335
6580,82.25,-0.325
6581,82.2625,-0.33
6582,82.275,-0.315
6583,82.2875,-0.33
6584,82.3,-0.345
6585,82.3125,-0.345
6586,82.325,-0.305
6587,82.3375,-0.295
6588,82.35,-0.305
6589,82.3625,-0.325
6590,82.375,-0.34
6591,82.3875,-0.31
6592,82.4,-0.3
6593,82.4125,-0.29
6594,82.425,-0.295
6595,82.4375,-0.295
6596,82.45,-0.295
6597,82.4625,-0.275
6598,82.475,-0.26
6599,82.4875,-0.275
6600,82.5,-0.3
6601,82.5125,-0.315
6602,82.525,-0.335
6603,82.5375,-0.33
6604,82.55,-0.295
6605,82.5625,-0.285
6606,82.575,-0.27
6607,82.5875,-0.285
6608,82.6,-0.3
6609,82.6125,-0.345
6610,82.625,-0.355
6611,82.6375,-0.365
6612,82.65,-0.36
6613,82.6625,-0.34
6614,82.675,-0.31
6615,82.6875,-0.28
6616,82.7,-0.255
6617,82.7125,-0.25
6618,82.725,-0.255
6619,82.7375,-0.26
6620,82.75,-0.24
6621,82.7625,-0.21
6622,82.775,-0.18
6623,82.7875,-0.15
6624,82.8,-0.15
6625,82.8125,-0.185
6626,82.825,-0.2
6627,82.8375,-0.2
6628,82.85,-0.2
6629,82.8625,-0.205
6630,82.875,-0.24
6631,82.8875,-0.29
6632,82.9,-0.32
6633,82.9125,-0.335
6634,82.925,-0.335
6635,82.9375,-0.36
6636,82.95,-0.38
6637,82.9625,-0.39
6638,82.975,-0.38
6639,82.9875,-0.365
6640,83.0,-0.36
6641,83.0125,-0.39
6642,83.025,-0.405
6643,83.0375,-0.43
6644,83.05,-0.44
6645,83.0625,-0.43
6646,83.075,-0.41
6647,83.0875,-0.4
6648,83.1,-0.42
6649,83.1125,-0.44
6650,83.125,-0.47
6651,83.1375,-0.47
6652,83.15,-0.465
6653,83.1625,-0.435
6654,83.175,-0.4
6655,83.1875,-0.345
6656,83.2,-0.24
6657,83.2125,-0.085
6658,83.225,0.13
6659,83.2375,0.32
6660,83.25,0.515
6661,83.2625,0.7
6662,83.275,0.865
6663,83.2875,0.89
6664,83.3,0.68
6665,83.3125,0.35
6666,83.325,-0.005
6667,83.3375,-0.3
6668,83.35,-0.485
6669,83.3625,-0.57
6670,83.375,-0.62
6671,83.3875,-0.63
6672,83.4,-0.655
6673,83.4125,-0.68
6674,83.425,-0.675
6675,83.4375,-0.635
6676,83.45,-0.615
6677,83.4625,-0.59
6678,83.475,-0.615
6679,83.4875,-0.615
6680,83.5,-0.6
6681,83.5125,-0.57
6682,83.525,-0.545
6683,83.5375,-0.54
6684,83.55,-0.545
